# OpenSignals Text File Format. Version 1
# {"98:D3:41:FD:4F:1F": {"position": 0, "device": "bitalino_rev", "device name": "98:D3:41:FD:4F:1F", "device connection": "BTH98:D3:41:FD:4F:1F", "sampling rate": 100, "resolution": [4, 1, 1, 1, 1, 10], "firmware version": 1281, "comments": "", "keywords": "", "mode": 2, "sync interval": 2, "date": "2021-2-5", "time": "10:32:38.697", "channels": [5], "sensor": ["ACCBITREV"], "label": ["A5"], "column": ["nSeq", "I1", "I2", "O1", "O2", "A5"], "special": [{}], "digital IO": [0, 0, 1, 1]}}
# EndOfHeader
1	1	0	0	0	635	
2	1	0	0	0	605	
3	1	0	0	0	597	
4	1	0	0	0	600	
5	1	0	0	0	609	
6	1	0	0	0	609	
7	1	0	0	0	607	
8	1	0	0	0	612	
9	1	0	0	0	619	
10	1	0	0	0	620	
11	1	0	0	0	620	
12	1	0	0	0	625	
13	1	0	0	0	625	
14	1	0	0	0	617	
15	1	0	0	0	608	
0	1	0	0	0	607	
1	1	0	0	0	607	
2	1	0	0	0	604	
3	1	0	0	0	607	
4	1	0	0	0	615	
5	1	0	0	0	622	
6	1	0	0	0	605	
7	1	0	0	0	612	
8	1	0	0	0	617	
9	0	0	0	0	636	
10	0	0	0	0	614	
11	0	0	0	0	600	
12	0	0	0	0	609	
13	0	0	0	0	613	
14	0	0	0	0	588	
15	0	0	0	0	584	
0	0	0	0	0	599	
1	0	0	0	0	600	
2	0	0	0	0	609	
3	0	0	0	0	608	
4	0	0	0	0	611	
5	0	0	0	0	609	
6	0	0	0	0	606	
7	0	0	0	0	591	
8	0	0	0	0	600	
9	0	0	0	0	609	
10	0	0	0	0	610	
11	0	0	0	0	601	
12	0	0	0	0	611	
13	0	0	0	0	614	
14	0	0	0	0	611	
15	0	0	0	0	606	
0	0	0	0	0	614	
1	0	0	0	0	624	
2	0	0	0	0	622	
3	0	0	0	0	613	
4	0	0	0	0	612	
5	0	0	0	0	614	
6	0	0	0	0	609	
7	0	0	0	0	602	
8	0	0	0	0	610	
9	0	0	0	0	615	
10	0	0	0	0	605	
11	0	0	0	0	609	
12	0	0	0	0	614	
13	0	0	0	0	620	
14	0	0	0	0	611	
15	0	0	0	0	608	
0	0	0	0	0	612	
1	0	0	0	0	620	
2	0	0	0	0	615	
3	0	0	0	0	615	
4	0	0	0	0	613	
5	0	0	0	0	614	
6	0	0	0	0	608	
7	0	0	0	0	601	
8	0	0	0	0	614	
9	0	0	0	0	638	
10	0	0	0	0	612	
11	0	0	0	0	610	
12	0	0	0	0	613	
13	0	0	0	0	616	
14	0	0	0	0	613	
15	0	0	0	0	610	
0	0	0	0	0	608	
1	0	0	0	0	633	
2	0	0	0	0	626	
3	0	0	0	0	625	
4	0	0	0	0	629	
5	0	0	0	0	629	
6	0	0	0	0	612	
7	0	0	0	0	595	
8	0	0	0	0	596	
9	0	0	0	0	603	
10	0	0	0	0	598	
11	0	0	0	0	594	
12	0	0	0	0	600	
13	0	0	0	0	609	
14	0	0	0	0	616	
15	0	0	0	0	621	
0	0	0	0	0	633	
1	0	0	0	0	638	
2	0	0	0	0	615	
3	0	0	0	0	595	
4	0	0	0	0	593	
5	0	0	0	0	605	
6	0	0	0	0	606	
7	0	0	0	0	604	
8	0	0	0	0	615	
9	0	0	0	0	624	
10	0	0	0	0	619	
11	0	0	0	0	607	
12	0	0	0	0	606	
13	0	0	0	0	604	
14	0	0	0	0	601	
15	0	0	0	0	602	
0	0	0	0	0	618	
1	0	0	0	0	626	
2	0	0	0	0	611	
3	0	0	0	0	592	
4	0	0	0	0	596	
5	0	0	0	0	600	
6	0	0	0	0	598	
7	0	0	0	0	598	
8	0	0	0	0	603	
9	0	0	0	0	604	
10	0	0	0	0	593	
11	0	0	0	0	587	
12	0	0	0	0	594	
13	0	0	0	0	600	
14	0	0	0	0	604	
15	0	0	0	0	610	
0	0	0	0	0	621	
1	0	0	0	0	624	
2	0	0	0	0	617	
3	0	0	0	0	610	
4	0	0	0	0	617	
5	0	0	0	0	619	
6	0	0	0	0	607	
7	0	0	0	0	599	
8	0	0	0	0	611	
9	0	0	0	0	624	
10	0	0	0	0	624	
11	0	0	0	0	615	
12	0	0	0	0	618	
13	0	0	0	0	621	
14	0	0	0	0	612	
15	0	0	0	0	604	
0	0	0	0	0	607	
1	0	0	0	0	609	
2	0	0	0	0	606	
3	0	0	0	0	604	
4	0	0	0	0	615	
5	0	0	0	0	624	
6	0	0	0	0	615	
7	0	0	0	0	605	
8	0	0	0	0	615	
9	0	0	0	0	625	
10	0	0	0	0	621	
11	0	0	0	0	615	
12	0	0	0	0	621	
13	0	0	0	0	624	
14	0	0	0	0	620	
15	0	0	0	0	613	
0	0	0	0	0	615	
1	0	0	0	0	625	
2	0	0	0	0	607	
3	0	0	0	0	606	
4	0	0	0	0	615	
5	0	0	0	0	627	
6	0	0	0	0	627	
7	0	0	0	0	617	
8	0	0	0	0	619	
9	0	0	0	0	621	
10	0	0	0	0	611	
11	0	0	0	0	600	
12	0	0	0	0	606	
13	0	0	0	0	619	
14	0	0	0	0	617	
15	0	0	0	0	612	
0	0	0	0	0	627	
1	0	0	0	0	631	
2	0	0	0	0	627	
3	0	0	0	0	616	
4	0	0	0	0	624	
5	0	0	0	0	633	
6	0	0	0	0	636	
7	0	0	0	0	639	
8	0	0	0	0	649	
9	0	0	0	0	647	
10	0	0	0	0	651	
11	0	0	0	0	647	
12	0	0	0	0	657	
13	0	0	0	0	660	
14	0	0	0	0	652	
15	0	0	0	0	642	
0	0	0	0	0	646	
1	0	0	0	0	649	
2	0	0	0	0	637	
3	0	0	0	0	628	
4	0	0	0	0	625	
5	0	0	0	0	623	
6	0	0	0	0	614	
7	0	0	0	0	596	
8	0	0	0	0	604	
9	0	0	0	0	606	
10	0	0	0	0	606	
11	0	0	0	0	614	
12	0	0	0	0	625	
13	0	0	0	0	621	
14	0	0	0	0	615	
15	0	0	0	0	610	
0	0	0	0	0	617	
1	0	0	0	0	626	
2	0	0	0	0	621	
3	0	0	0	0	614	
4	0	0	0	0	619	
5	0	0	0	0	621	
6	0	0	0	0	611	
7	0	0	0	0	600	
8	0	0	0	0	603	
9	0	0	0	0	606	
10	0	0	0	0	595	
11	0	0	0	0	583	
12	0	0	0	0	591	
13	0	0	0	0	601	
14	0	0	0	0	600	
15	0	0	0	0	595	
0	0	0	0	0	598	
1	0	0	0	0	598	
2	0	0	0	0	590	
3	0	0	0	0	583	
4	0	0	0	0	595	
5	0	0	0	0	604	
6	0	0	0	0	604	
7	0	0	0	0	601	
8	0	0	0	0	607	
9	0	0	0	0	612	
10	0	0	0	0	601	
11	0	0	0	0	587	
12	0	0	0	0	589	
13	0	0	0	0	596	
14	0	0	0	0	597	
15	0	0	0	0	593	
0	0	0	0	0	597	
1	0	0	0	0	603	
2	0	0	0	0	598	
3	0	0	0	0	592	
4	0	0	0	0	593	
5	0	0	0	0	597	
6	0	0	0	0	597	
7	0	0	0	0	593	
8	0	0	0	0	597	
9	0	0	0	0	604	
10	0	0	0	0	595	
11	0	0	0	0	591	
12	0	0	0	0	599	
13	0	0	0	0	610	
14	0	0	0	0	615	
15	0	0	0	0	616	
0	0	0	0	0	627	
1	0	0	0	0	631	
2	0	0	0	0	624	
3	0	0	0	0	618	
4	0	0	0	0	627	
5	0	0	0	0	632	
6	0	0	0	0	632	
7	0	0	0	0	632	
8	0	0	0	0	636	
9	0	0	0	0	637	
10	0	0	0	0	625	
11	0	0	0	0	614	
12	0	0	0	0	618	
13	0	0	0	0	622	
14	0	0	0	0	614	
15	0	0	0	0	608	
0	0	0	0	0	609	
1	0	0	0	0	612	
2	0	0	0	0	605	
3	0	0	0	0	596	
4	0	0	0	0	596	
5	0	0	0	0	598	
6	0	0	0	0	590	
7	0	0	0	0	591	
8	0	0	0	0	599	
9	0	0	0	0	607	
10	0	0	0	0	605	
11	0	0	0	0	594	
12	0	0	0	0	596	
13	0	0	0	0	607	
14	0	0	0	0	611	
15	0	0	0	0	603	
0	0	0	0	0	601	
1	0	0	0	0	608	
2	0	0	0	0	603	
3	0	0	0	0	608	
4	0	0	0	0	603	
5	0	0	0	0	607	
6	0	0	0	0	608	
7	0	0	0	0	598	
8	0	0	0	0	602	
9	0	0	0	0	601	
10	0	0	0	0	598	
11	0	0	0	0	593	
12	0	0	0	0	601	
13	0	0	0	0	613	
14	0	0	0	0	604	
15	0	0	0	0	603	
0	0	0	0	0	601	
1	0	0	0	0	595	
2	0	0	0	0	590	
3	0	0	0	0	593	
4	0	0	0	0	591	
5	0	0	0	0	604	
6	0	0	0	0	599	
7	0	0	0	0	590	
8	0	0	0	0	600	
9	0	0	0	0	611	
10	0	0	0	0	608	
11	0	0	0	0	645	
12	0	0	0	0	617	
13	0	0	0	0	617	
14	0	0	0	0	606	
15	0	0	0	0	599	
0	0	0	0	0	600	
1	0	0	0	0	600	
2	0	0	0	0	593	
3	0	0	0	0	591	
4	0	0	0	0	601	
5	0	0	0	0	611	
6	0	0	0	0	623	
7	0	0	0	0	632	
8	0	0	0	0	640	
9	0	0	0	0	643	
10	0	0	0	0	642	
11	0	0	0	0	643	
12	0	0	0	0	647	
13	0	0	0	0	640	
14	0	0	0	0	623	
15	0	0	0	0	609	
0	0	0	0	0	617	
1	0	0	0	0	615	
2	0	0	0	0	595	
3	0	0	0	0	578	
4	0	0	0	0	578	
5	0	0	0	0	583	
6	0	0	0	0	589	
7	0	0	0	0	584	
8	0	0	0	0	585	
9	0	0	0	0	599	
10	0	0	0	0	608	
11	0	0	0	0	601	
12	0	0	0	0	596	
13	0	0	0	0	598	
14	0	0	0	0	599	
15	0	0	0	0	595	
0	0	0	0	0	604	
1	0	0	0	0	632	
2	0	0	0	0	600	
3	0	0	0	0	593	
4	0	0	0	0	604	
5	0	0	0	0	602	
6	0	0	0	0	610	
7	0	0	0	0	625	
8	0	0	0	0	650	
9	0	0	0	0	675	
10	0	0	0	0	671	
11	0	0	0	0	655	
12	0	0	0	0	647	
13	0	0	0	0	644	
14	0	0	0	0	639	
15	0	0	0	0	641	
0	0	0	0	0	651	
1	0	0	0	0	644	
2	0	0	0	0	644	
3	0	0	0	0	644	
4	0	0	0	0	648	
5	0	0	0	0	645	
6	0	0	0	0	646	
7	0	0	0	0	633	
8	0	0	0	0	626	
9	0	0	0	0	642	
10	0	0	0	0	641	
11	0	0	0	0	624	
12	0	0	0	0	610	
13	0	0	0	0	626	
14	0	0	0	0	626	
15	0	0	0	0	614	
0	0	0	0	0	627	
1	0	0	0	0	626	
2	0	0	0	0	609	
3	0	0	0	0	605	
4	0	0	0	0	612	
5	0	0	0	0	612	
6	0	0	0	0	622	
7	0	0	0	0	615	
8	0	0	0	0	627	
9	0	0	0	0	645	
10	0	0	0	0	650	
11	0	0	0	0	642	
12	0	0	0	0	632	
13	0	0	0	0	616	
14	0	0	0	0	594	
15	0	0	0	0	576	
0	0	0	0	0	583	
1	0	0	0	0	592	
2	0	0	0	0	583	
3	0	0	0	0	570	
4	0	0	0	0	588	
5	0	0	0	0	608	
6	0	0	0	0	609	
7	0	0	0	0	602	
8	0	0	0	0	606	
9	0	0	0	0	620	
10	0	0	0	0	617	
11	0	0	0	0	609	
12	0	0	0	0	615	
13	0	0	0	0	639	
14	0	0	0	0	656	
15	0	0	0	0	649	
0	0	0	0	0	638	
1	0	0	0	0	630	
2	0	0	0	0	614	
3	0	0	0	0	608	
4	0	0	0	0	615	
5	0	0	0	0	623	
6	0	0	0	0	633	
7	0	0	0	0	648	
8	0	0	0	0	669	
9	0	0	0	0	671	
10	0	0	0	0	647	
11	0	0	0	0	637	
12	0	0	0	0	632	
13	0	0	0	0	627	
14	0	0	0	0	615	
15	0	0	0	0	605	
0	0	0	0	0	601	
1	0	0	0	0	603	
2	0	0	0	0	620	
3	0	0	0	0	630	
4	0	0	0	0	632	
5	0	0	0	0	627	
6	0	0	0	0	608	
7	0	0	0	0	588	
8	0	0	0	0	585	
9	0	0	0	0	590	
10	0	0	0	0	587	
11	0	0	0	0	579	
12	0	0	0	0	580	
13	0	0	0	0	582	
14	0	0	0	0	582	
15	0	0	0	0	583	
0	0	0	0	0	593	
1	0	0	0	0	594	
2	0	0	0	0	579	
3	0	0	0	0	568	
4	0	0	0	0	569	
5	0	0	0	0	579	
6	0	0	0	0	587	
7	0	0	0	0	587	
8	0	0	0	0	595	
9	0	0	0	0	605	
10	0	0	0	0	596	
11	0	0	0	0	588	
12	0	0	0	0	591	
13	0	0	0	0	602	
14	0	0	0	0	604	
15	0	0	0	0	597	
0	0	0	0	0	605	
1	0	0	0	0	615	
2	0	0	0	0	609	
3	0	0	0	0	604	
4	0	0	0	0	608	
5	0	0	0	0	614	
6	0	0	0	0	608	
7	0	0	0	0	599	
8	0	0	0	0	601	
9	0	0	0	0	603	
10	0	0	0	0	597	
11	0	0	0	0	590	
12	0	0	0	0	592	
13	0	0	0	0	591	
14	0	0	0	0	592	
15	0	0	0	0	589	
0	0	0	0	0	609	
1	0	0	0	0	622	
2	0	0	0	0	623	
3	0	0	0	0	645	
4	0	0	0	0	676	
5	0	0	0	0	668	
6	0	0	0	0	671	
7	0	0	0	0	667	
8	0	0	0	0	647	
9	0	0	0	0	629	
10	0	0	0	0	612	
11	0	0	0	0	600	
12	0	0	0	0	609	
13	0	0	0	0	613	
14	0	0	0	0	608	
15	0	0	0	0	596	
0	0	0	0	0	587	
1	0	0	0	0	597	
2	0	0	0	0	600	
3	0	0	0	0	603	
4	0	0	0	0	601	
5	0	0	0	0	610	
6	0	0	0	0	610	
7	0	0	0	0	601	
8	0	0	0	0	604	
9	0	0	0	0	611	
10	0	0	0	0	606	
11	0	0	0	0	597	
12	0	0	0	0	596	
13	0	0	0	0	600	
14	0	0	0	0	601	
15	0	0	0	0	587	
0	0	0	0	0	584	
1	0	0	0	0	596	
2	0	0	0	0	604	
3	0	0	0	0	608	
4	0	0	0	0	622	
5	0	0	0	0	631	
6	0	0	0	0	617	
7	0	0	0	0	595	
8	0	0	0	0	600	
9	0	0	0	0	610	
10	0	0	0	0	591	
11	0	0	0	0	581	
12	0	0	0	0	594	
13	0	0	0	0	613	
14	0	0	0	0	611	
15	0	0	0	0	605	
0	0	0	0	0	616	
1	0	0	0	0	633	
2	0	0	0	0	635	
3	0	0	0	0	627	
4	0	0	0	0	633	
5	0	0	0	0	636	
6	0	0	0	0	625	
7	0	0	0	0	616	
8	0	0	0	0	624	
9	0	0	0	0	623	
10	0	0	0	0	614	
11	0	0	0	0	608	
12	0	0	0	0	603	
13	0	0	0	0	601	
14	0	0	0	0	593	
15	0	0	0	0	586	
0	0	0	0	0	591	
1	0	0	0	0	597	
2	0	0	0	0	585	
3	0	0	0	0	578	
4	0	0	0	0	590	
5	0	0	0	0	599	
6	0	0	0	0	600	
7	0	0	0	0	592	
8	0	0	0	0	601	
9	0	0	0	0	609	
10	0	0	0	0	604	
11	0	0	0	0	595	
12	0	0	0	0	602	
13	0	0	0	0	606	
14	0	0	0	0	604	
15	0	0	0	0	596	
0	0	0	0	0	601	
1	0	0	0	0	603	
2	0	0	0	0	595	
3	0	0	0	0	584	
4	0	0	0	0	583	
5	0	0	0	0	592	
6	0	0	0	0	592	
7	0	0	0	0	586	
8	0	0	0	0	584	
9	0	0	0	0	573	
10	0	0	0	0	564	
11	0	0	0	0	555	
12	0	0	0	0	561	
13	0	0	0	0	572	
14	0	0	0	0	582	
15	0	0	0	0	588	
0	0	0	0	0	593	
1	0	0	0	0	600	
2	0	0	0	0	592	
3	0	0	0	0	581	
4	0	0	0	0	579	
5	0	0	0	0	580	
6	0	0	0	0	573	
7	0	0	0	0	571	
8	0	0	0	0	588	
9	0	0	0	0	617	
10	0	0	0	0	634	
11	0	0	0	0	630	
12	0	0	0	0	631	
13	0	0	0	0	630	
14	0	0	0	0	618	
15	0	0	0	0	612	
0	0	0	0	0	617	
1	0	0	0	0	624	
2	0	0	0	0	629	
3	0	0	0	0	636	
4	0	0	0	0	654	
5	0	0	0	0	665	
6	0	0	0	0	648	
7	0	0	0	0	632	
8	0	0	0	0	633	
9	0	0	0	0	631	
10	0	0	0	0	621	
11	0	0	0	0	608	
12	0	0	0	0	611	
13	0	0	0	0	617	
14	0	0	0	0	614	
15	0	0	0	0	615	
0	0	0	0	0	622	
1	0	0	0	0	625	
2	0	0	0	0	617	
3	0	0	0	0	609	
4	0	0	0	0	614	
5	0	0	0	0	619	
6	0	0	0	0	617	
7	0	0	0	0	627	
8	0	0	0	0	615	
9	0	0	0	0	559	
10	0	0	0	0	636	
11	0	0	0	0	601	
12	0	0	0	0	627	
13	0	0	0	0	616	
14	0	0	0	0	607	
15	0	0	0	0	601	
0	0	0	0	0	607	
1	0	0	0	0	613	
2	0	0	0	0	611	
3	0	0	0	0	610	
4	0	0	0	0	624	
5	0	0	0	0	634	
6	0	0	0	0	627	
7	0	0	0	0	619	
8	0	0	0	0	624	
9	0	0	0	0	631	
10	0	0	0	0	630	
11	0	0	0	0	627	
12	0	0	0	0	631	
13	0	0	0	0	632	
14	0	0	0	0	625	
15	0	0	0	0	615	
0	0	0	0	0	612	
1	0	0	0	0	614	
2	0	0	0	0	606	
3	0	0	0	0	597	
4	0	0	0	0	600	
5	0	0	0	0	603	
6	0	0	0	0	596	
7	0	0	0	0	596	
8	0	0	0	0	608	
9	0	0	0	0	625	
10	0	0	0	0	632	
11	0	0	0	0	634	
12	0	0	0	0	642	
13	0	0	0	0	639	
14	0	0	0	0	635	
15	0	0	0	0	617	
0	0	0	0	0	619	
1	0	0	0	0	624	
2	0	0	0	0	618	
3	0	0	0	0	611	
4	0	0	0	0	615	
5	0	0	0	0	621	
6	0	0	0	0	612	
7	0	0	0	0	579	
8	0	0	0	0	560	
9	0	0	0	0	564	
10	0	0	0	0	588	
11	0	0	0	0	612	
12	0	0	0	0	654	
13	0	0	0	0	675	
14	0	0	0	0	670	
15	0	0	0	0	641	
0	0	0	0	0	621	
1	0	0	0	0	612	
2	0	0	0	0	596	
3	0	0	0	0	581	
4	0	0	0	0	581	
5	0	0	0	0	588	
6	0	0	0	0	588	
7	0	0	0	0	583	
8	0	0	0	0	593	
9	0	0	0	0	604	
10	0	0	0	0	598	
11	0	0	0	0	588	
12	0	0	0	0	588	
13	0	0	0	0	592	
14	0	0	0	0	590	
15	0	0	0	0	580	
0	0	0	0	0	588	
1	0	0	0	0	590	
2	0	0	0	0	585	
3	0	0	0	0	580	
4	0	0	0	0	588	
5	0	0	0	0	591	
6	0	0	0	0	582	
7	0	0	0	0	575	
8	0	0	0	0	577	
9	0	0	0	0	579	
10	0	0	0	0	573	
11	0	0	0	0	565	
12	0	0	0	0	573	
13	0	0	0	0	583	
14	0	0	0	0	583	
15	0	0	0	0	577	
0	0	0	0	0	586	
1	0	0	0	0	593	
2	0	0	0	0	587	
3	0	0	0	0	580	
4	0	0	0	0	588	
5	0	0	0	0	595	
6	0	0	0	0	598	
7	0	0	0	0	602	
8	0	0	0	0	617	
9	0	0	0	0	630	
10	0	0	0	0	625	
11	0	0	0	0	620	
12	0	0	0	0	625	
13	0	0	0	0	631	
14	0	0	0	0	626	
15	0	0	0	0	617	
0	0	0	0	0	622	
1	0	0	0	0	630	
2	0	0	0	0	632	
3	0	0	0	0	638	
4	0	0	0	0	642	
5	0	0	0	0	640	
6	0	0	0	0	632	
7	0	0	0	0	625	
8	0	0	0	0	626	
9	0	0	0	0	623	
10	0	0	0	0	615	
11	0	0	0	0	609	
12	0	0	0	0	613	
13	0	0	0	0	617	
14	0	0	0	0	610	
15	0	0	0	0	603	
0	0	0	0	0	605	
1	0	0	0	0	606	
2	0	0	0	0	599	
3	0	0	0	0	591	
4	0	0	0	0	593	
5	0	0	0	0	595	
6	0	0	0	0	588	
7	0	0	0	0	583	
8	0	0	0	0	588	
9	0	0	0	0	597	
10	0	0	0	0	597	
11	0	0	0	0	592	
12	0	0	0	0	594	
13	0	0	0	0	600	
14	0	0	0	0	597	
15	0	0	0	0	589	
0	0	0	0	0	594	
1	0	0	0	0	603	
2	0	0	0	0	601	
3	0	0	0	0	598	
4	0	0	0	0	603	
5	0	0	0	0	610	
6	0	0	0	0	607	
7	0	0	0	0	600	
8	0	0	0	0	605	
9	0	0	0	0	613	
10	0	0	0	0	609	
11	0	0	0	0	600	
12	0	0	0	0	603	
13	0	0	0	0	609	
14	0	0	0	0	605	
15	0	0	0	0	601	
0	0	0	0	0	607	
1	0	0	0	0	615	
2	0	0	0	0	612	
3	0	0	0	0	610	
4	0	0	0	0	620	
5	0	0	0	0	626	
6	0	0	0	0	619	
7	0	0	0	0	612	
8	0	0	0	0	617	
9	0	0	0	0	620	
10	0	0	0	0	620	
11	0	0	0	0	619	
12	0	0	0	0	624	
13	0	0	0	0	622	
14	0	0	0	0	620	
15	0	0	0	0	624	
0	0	0	0	0	619	
1	0	0	0	0	635	
2	0	0	0	0	627	
3	0	0	0	0	619	
4	0	0	0	0	624	
5	0	0	0	0	628	
6	0	0	0	0	627	
7	0	0	0	0	626	
8	0	0	0	0	632	
9	0	0	0	0	636	
10	0	0	0	0	634	
11	0	0	0	0	632	
12	0	0	0	0	638	
13	0	0	0	0	640	
14	0	0	0	0	635	
15	0	0	0	0	625	
0	0	0	0	0	630	
1	0	0	0	0	633	
2	0	0	0	0	628	
3	0	0	0	0	620	
4	0	0	0	0	623	
5	0	0	0	0	625	
6	0	0	0	0	616	
7	0	0	0	0	606	
8	0	0	0	0	613	
9	0	0	0	0	618	
10	0	0	0	0	605	
11	0	0	0	0	590	
12	0	0	0	0	591	
13	0	0	0	0	593	
14	0	0	0	0	583	
15	0	0	0	0	571	
0	0	0	0	0	574	
1	0	0	0	0	582	
2	0	0	0	0	580	
3	0	0	0	0	578	
4	0	0	0	0	586	
5	0	0	0	0	586	
6	0	0	0	0	580	
7	0	0	0	0	576	
8	0	0	0	0	579	
9	0	0	0	0	584	
10	0	0	0	0	582	
11	0	0	0	0	580	
12	0	0	0	0	588	
13	0	0	0	0	593	
14	0	0	0	0	590	
15	0	0	0	0	584	
0	0	0	0	0	589	
1	0	0	0	0	592	
2	0	0	0	0	587	
3	0	0	0	0	588	
4	0	0	0	0	596	
5	0	0	0	0	607	
6	0	0	0	0	605	
7	0	0	0	0	600	
8	0	0	0	0	603	
9	0	0	0	0	605	
10	0	0	0	0	597	
11	0	0	0	0	588	
12	0	0	0	0	603	
13	0	0	0	0	624	
14	0	0	0	0	637	
15	0	0	0	0	648	
0	0	0	0	0	659	
1	0	0	0	0	655	
2	0	0	0	0	639	
3	0	0	0	0	625	
4	0	0	0	0	622	
5	0	0	0	0	616	
6	0	0	0	0	606	
7	0	0	0	0	602	
8	0	0	0	0	617	
9	0	0	0	0	627	
10	0	0	0	0	624	
11	0	0	0	0	619	
12	0	0	0	0	632	
13	0	0	0	0	641	
14	0	0	0	0	640	
15	0	0	0	0	633	
0	0	0	0	0	636	
1	0	0	0	0	639	
2	0	0	0	0	633	
3	0	0	0	0	630	
4	0	0	0	0	639	
5	0	0	0	0	649	
6	0	0	0	0	650	
7	0	0	0	0	643	
8	0	0	0	0	643	
9	0	0	0	0	639	
10	0	0	0	0	629	
11	0	0	0	0	624	
12	0	0	0	0	631	
13	0	0	0	0	638	
14	0	0	0	0	633	
15	0	0	0	0	630	
0	0	0	0	0	639	
1	0	0	0	0	644	
2	0	0	0	0	637	
3	0	0	0	0	629	
4	0	0	0	0	630	
5	0	0	0	0	630	
6	0	0	0	0	624	
7	0	0	0	0	621	
8	0	0	0	0	627	
9	0	0	0	0	635	
10	0	0	0	0	632	
11	0	0	0	0	630	
12	0	0	0	0	632	
13	0	0	0	0	638	
14	0	0	0	0	638	
15	0	0	0	0	633	
0	0	0	0	0	634	
1	0	0	0	0	634	
2	0	0	0	0	628	
3	0	0	0	0	627	
4	0	0	0	0	632	
5	0	0	0	0	635	
6	0	0	0	0	627	
7	0	0	0	0	624	
8	0	0	0	0	634	
9	0	0	0	0	638	
10	0	0	0	0	622	
11	0	0	0	0	612	
12	0	0	0	0	612	
13	0	0	0	0	614	
14	0	0	0	0	610	
15	0	0	0	0	602	
0	0	0	0	0	606	
1	0	0	0	0	610	
2	0	0	0	0	611	
3	0	0	0	0	610	
4	0	0	0	0	615	
5	0	0	0	0	617	
6	0	0	0	0	609	
7	0	0	0	0	599	
8	0	0	0	0	600	
9	0	0	0	0	604	
10	0	0	0	0	600	
11	0	0	0	0	596	
12	0	0	0	0	609	
13	0	0	0	0	620	
14	0	0	0	0	624	
15	0	0	0	0	633	
0	0	0	0	0	641	
1	0	0	0	0	643	
2	0	0	0	0	632	
3	0	0	0	0	621	
4	0	0	0	0	624	
5	0	0	0	0	631	
6	0	0	0	0	624	
7	0	0	0	0	620	
8	0	0	0	0	635	
9	0	0	0	0	639	
10	0	0	0	0	627	
11	0	0	0	0	623	
12	0	0	0	0	638	
13	0	0	0	0	632	
14	0	0	0	0	628	
15	0	0	0	0	632	
0	0	0	0	0	643	
1	0	0	0	0	655	
2	0	0	0	0	653	
3	0	0	0	0	647	
4	0	0	0	0	648	
5	0	0	0	0	647	
6	0	0	0	0	638	
7	0	0	0	0	627	
8	0	0	0	0	634	
9	0	0	0	0	637	
10	0	0	0	0	628	
11	0	0	0	0	619	
12	0	0	0	0	620	
13	0	0	0	0	619	
14	0	0	0	0	611	
15	0	0	0	0	597	
0	0	0	0	0	592	
1	0	0	0	0	588	
2	0	0	0	0	573	
3	0	0	0	0	561	
4	0	0	0	0	565	
5	0	0	0	0	571	
6	0	0	0	0	571	
7	0	0	0	0	569	
8	0	0	0	0	575	
9	0	0	0	0	575	
10	0	0	0	0	566	
11	0	0	0	0	556	
12	0	0	0	0	559	
13	0	0	0	0	562	
14	0	0	0	0	558	
15	0	0	0	0	559	
0	0	0	0	0	575	
1	0	0	0	0	583	
2	0	0	0	0	579	
3	0	0	0	0	577	
4	0	0	0	0	588	
5	0	0	0	0	593	
6	0	0	0	0	591	
7	0	0	0	0	591	
8	0	0	0	0	601	
9	0	0	0	0	614	
10	0	0	0	0	610	
11	0	0	0	0	608	
12	0	0	0	0	616	
13	0	0	0	0	629	
14	0	0	0	0	634	
15	0	0	0	0	636	
0	0	0	0	0	645	
1	0	0	0	0	651	
2	0	0	0	0	648	
3	0	0	0	0	647	
4	0	0	0	0	656	
5	0	0	0	0	663	
6	0	0	0	0	658	
7	0	0	0	0	655	
8	0	0	0	0	661	
9	0	0	0	0	665	
10	0	0	0	0	662	
11	0	0	0	0	659	
12	0	0	0	0	664	
13	0	0	0	0	671	
14	0	0	0	0	671	
15	0	0	0	0	672	
0	0	0	0	0	678	
1	0	0	0	0	683	
2	0	0	0	0	670	
3	0	0	0	0	651	
4	0	0	0	0	640	
5	0	0	0	0	630	
6	0	0	0	0	614	
7	0	0	0	0	598	
8	0	0	0	0	595	
9	0	0	0	0	595	
10	0	0	0	0	590	
11	0	0	0	0	584	
12	0	0	0	0	591	
13	0	0	0	0	600	
14	0	0	0	0	597	
15	0	0	0	0	593	
0	0	0	0	0	603	
1	0	0	0	0	612	
2	0	0	0	0	609	
3	0	0	0	0	604	
4	0	0	0	0	608	
5	0	0	0	0	614	
6	0	0	0	0	609	
7	0	0	0	0	602	
8	0	0	0	0	607	
9	0	0	0	0	611	
10	0	0	0	0	606	
11	0	0	0	0	601	
12	0	0	0	0	605	
13	0	0	0	0	606	
14	0	0	0	0	597	
15	0	0	0	0	589	
0	0	0	0	0	595	
1	0	0	0	0	607	
2	0	0	0	0	612	
3	0	0	0	0	615	
4	0	0	0	0	630	
5	0	0	0	0	645	
6	0	0	0	0	640	
7	0	0	0	0	629	
8	0	0	0	0	629	
9	0	0	0	0	627	
10	0	0	0	0	621	
11	0	0	0	0	614	
12	0	0	0	0	619	
13	0	0	0	0	629	
14	0	0	0	0	625	
15	0	0	0	0	621	
0	0	0	0	0	632	
1	0	0	0	0	636	
2	0	0	0	0	626	
3	0	0	0	0	618	
4	0	0	0	0	624	
5	0	0	0	0	630	
6	0	0	0	0	621	
7	0	0	0	0	608	
8	0	0	0	0	606	
9	0	0	0	0	603	
10	0	0	0	0	592	
11	0	0	0	0	584	
12	0	0	0	0	587	
13	0	0	0	0	588	
14	0	0	0	0	579	
15	0	0	0	0	571	
0	0	0	0	0	574	
1	0	0	0	0	577	
2	0	0	0	0	574	
3	0	0	0	0	572	
4	0	0	0	0	580	
5	0	0	0	0	585	
6	0	0	0	0	581	
7	0	0	0	0	576	
8	0	0	0	0	587	
9	0	0	0	0	596	
10	0	0	0	0	591	
11	0	0	0	0	587	
12	0	0	0	0	590	
13	0	0	0	0	592	
14	0	0	0	0	588	
15	0	0	0	0	585	
0	0	0	0	0	593	
1	0	0	0	0	602	
2	0	0	0	0	600	
3	0	0	0	0	598	
4	0	0	0	0	607	
5	0	0	0	0	621	
6	0	0	0	0	625	
7	0	0	0	0	624	
8	0	0	0	0	635	
9	0	0	0	0	642	
10	0	0	0	0	634	
11	0	0	0	0	623	
12	0	0	0	0	625	
13	0	0	0	0	633	
14	0	0	0	0	638	
15	0	0	0	0	644	
0	0	0	0	0	651	
1	0	0	0	0	648	
2	0	0	0	0	633	
3	0	0	0	0	619	
4	0	0	0	0	617	
5	0	0	0	0	616	
6	0	0	0	0	609	
7	0	0	0	0	604	
8	0	0	0	0	608	
9	0	0	0	0	613	
10	0	0	0	0	609	
11	0	0	0	0	611	
12	0	0	0	0	623	
13	0	0	0	0	624	
14	0	0	0	0	611	
15	0	0	0	0	600	
0	0	0	0	0	606	
1	0	0	0	0	613	
2	0	0	0	0	609	
3	0	0	0	0	603	
4	0	0	0	0	604	
5	0	0	0	0	605	
6	0	0	0	0	601	
7	0	0	0	0	599	
8	0	0	0	0	600	
9	0	0	0	0	604	
10	0	0	0	0	600	
11	0	0	0	0	604	
12	0	0	0	0	614	
13	0	0	0	0	615	
14	0	0	0	0	608	
15	0	0	0	0	603	
0	0	0	0	0	609	
1	0	0	0	0	614	
2	0	0	0	0	608	
3	0	0	0	0	600	
4	0	0	0	0	607	
5	0	0	0	0	617	
6	0	0	0	0	621	
7	0	0	0	0	626	
8	0	0	0	0	630	
9	0	0	0	0	631	
10	0	0	0	0	628	
11	0	0	0	0	622	
12	0	0	0	0	628	
13	0	0	0	0	636	
14	0	0	0	0	626	
15	0	0	0	0	611	
0	0	0	0	0	609	
1	0	0	0	0	610	
2	0	0	0	0	600	
3	0	0	0	0	591	
4	0	0	0	0	590	
5	0	0	0	0	591	
6	0	0	0	0	582	
7	0	0	0	0	574	
8	0	0	0	0	580	
9	0	0	0	0	585	
10	0	0	0	0	582	
11	0	0	0	0	582	
12	0	0	0	0	591	
13	0	0	0	0	601	
14	0	0	0	0	603	
15	0	0	0	0	604	
0	0	0	0	0	614	
1	0	0	0	0	618	
2	0	0	0	0	609	
3	0	0	0	0	607	
4	0	0	0	0	612	
5	0	0	0	0	616	
6	0	0	0	0	610	
7	0	0	0	0	604	
8	0	0	0	0	608	
9	0	0	0	0	610	
10	0	0	0	0	606	
11	0	0	0	0	600	
12	0	0	0	0	601	
13	0	0	0	0	602	
14	0	0	0	0	599	
15	0	0	0	0	596	
0	0	0	0	0	601	
1	0	0	0	0	610	
2	0	0	0	0	603	
3	0	0	0	0	595	
4	0	0	0	0	594	
5	0	0	0	0	596	
6	0	0	0	0	597	
7	0	0	0	0	598	
8	0	0	0	0	604	
9	0	0	0	0	607	
10	0	0	0	0	602	
11	0	0	0	0	597	
12	0	0	0	0	601	
13	0	0	0	0	602	
14	0	0	0	0	595	
15	0	0	0	0	593	
0	0	0	0	0	607	
1	0	0	0	0	614	
2	0	0	0	0	604	
3	0	0	0	0	592	
4	0	0	0	0	595	
5	0	0	0	0	604	
6	0	0	0	0	602	
7	0	0	0	0	591	
8	0	0	0	0	598	
9	0	0	0	0	615	
10	0	0	0	0	620	
11	0	0	0	0	620	
12	0	0	0	0	628	
13	0	0	0	0	632	
14	0	0	0	0	623	
15	0	0	0	0	619	
0	0	0	0	0	621	
1	0	0	0	0	624	
2	0	0	0	0	617	
3	0	0	0	0	603	
4	0	0	0	0	611	
5	0	0	0	0	635	
6	0	0	0	0	646	
7	0	0	0	0	644	
8	0	0	0	0	651	
9	0	0	0	0	644	
10	0	0	0	0	627	
11	0	0	0	0	615	
12	0	0	0	0	617	
13	0	0	0	0	616	
14	0	0	0	0	608	
15	0	0	0	0	597	
0	0	0	0	0	600	
1	0	0	0	0	609	
2	0	0	0	0	612	
3	0	0	0	0	611	
4	0	0	0	0	615	
5	0	0	0	0	638	
6	0	0	0	0	632	
7	0	0	0	0	616	
8	0	0	0	0	630	
9	0	0	0	0	629	
10	0	0	0	0	615	
11	0	0	0	0	600	
12	0	0	0	0	606	
13	0	0	0	0	610	
14	0	0	0	0	611	
15	0	0	0	0	608	
0	0	0	0	0	614	
1	0	0	0	0	631	
2	0	0	0	0	616	
3	0	0	0	0	612	
4	0	0	0	0	633	
5	0	0	0	0	636	
6	0	0	0	0	629	
7	0	0	0	0	624	
8	0	0	0	0	628	
9	0	0	0	0	636	
10	0	0	0	0	631	
11	0	0	0	0	622	
12	0	0	0	0	620	
13	0	0	0	0	619	
14	0	0	0	0	611	
15	0	0	0	0	600	
0	0	0	0	0	600	
1	0	0	0	0	608	
2	0	0	0	0	605	
3	0	0	0	0	606	
4	0	0	0	0	608	
5	0	0	0	0	602	
6	0	0	0	0	595	
7	0	0	0	0	596	
8	0	0	0	0	604	
9	0	0	0	0	598	
10	0	0	0	0	606	
11	0	0	0	0	605	
12	0	0	0	0	608	
13	0	0	0	0	612	
14	0	0	0	0	603	
15	0	0	0	0	599	
0	0	0	0	0	607	
1	0	0	0	0	614	
2	0	0	0	0	608	
3	0	0	0	0	594	
4	0	0	0	0	585	
5	0	0	0	0	583	
6	0	0	0	0	577	
7	0	0	0	0	584	
8	0	0	0	0	604	
9	0	0	0	0	617	
10	0	0	0	0	611	
11	0	0	0	0	593	
12	0	0	0	0	592	
13	0	0	0	0	598	
14	0	0	0	0	583	
15	0	0	0	0	575	
0	0	0	0	0	580	
1	0	0	0	0	572	
2	0	0	0	0	566	
3	0	0	0	0	565	
4	0	0	0	0	575	
5	0	0	0	0	585	
6	0	0	0	0	590	
7	0	0	0	0	591	
8	0	0	0	0	594	
9	0	0	0	0	587	
10	0	0	0	0	574	
11	0	0	0	0	563	
12	0	0	0	0	564	
13	0	0	0	0	582	
14	0	0	0	0	581	
15	0	0	0	0	565	
0	0	0	0	0	579	
1	0	0	0	0	598	
2	0	0	0	0	594	
3	0	0	0	0	584	
4	0	0	0	0	598	
5	0	0	0	0	609	
6	0	0	0	0	607	
7	0	0	0	0	624	
8	0	0	0	0	647	
9	0	0	0	0	662	
10	0	0	0	0	674	
11	0	0	0	0	672	
12	0	0	0	0	664	
13	0	0	0	0	658	
14	0	0	0	0	636	
15	0	0	0	0	619	
0	0	0	0	0	617	
1	0	0	0	0	639	
2	0	0	0	0	656	
3	0	0	0	0	652	
4	0	0	0	0	655	
5	0	0	0	0	650	
6	0	0	0	0	627	
7	0	0	0	0	611	
8	0	0	0	0	585	
9	0	0	0	0	580	
10	0	0	0	0	570	
11	0	0	0	0	572	
12	0	0	0	0	568	
13	0	0	0	0	566	
14	0	0	0	0	546	
15	0	0	0	0	520	
0	0	0	0	0	499	
1	0	0	0	0	465	
2	0	0	0	0	439	
3	0	0	0	0	448	
4	0	0	0	0	486	
5	0	0	0	0	506	
6	0	0	0	0	506	
7	0	0	0	0	505	
8	0	0	0	0	524	
9	0	0	0	0	536	
10	0	0	0	0	524	
11	0	0	0	0	477	
12	0	0	0	0	417	
13	0	0	0	0	401	
14	0	0	0	0	415	
15	0	0	0	0	462	
0	0	0	0	0	515	
1	0	0	0	0	562	
2	0	0	0	0	581	
3	0	0	0	0	572	
4	0	0	0	0	556	
5	0	0	0	0	503	
6	0	0	0	0	468	
7	0	0	0	0	483	
8	0	0	0	0	534	
9	0	0	0	0	594	
10	0	0	0	0	617	
11	0	0	0	0	616	
12	0	0	0	0	608	
13	0	0	0	0	600	
14	0	0	0	0	560	
15	0	0	0	0	544	
0	0	0	0	0	584	
1	0	0	0	0	642	
2	0	0	0	0	659	
3	0	0	0	0	640	
4	0	0	0	0	642	
5	0	0	0	0	641	
6	0	0	0	0	630	
7	0	0	0	0	621	
8	0	0	0	0	640	
9	0	0	0	0	649	
10	0	0	0	0	640	
11	0	0	0	0	629	
12	0	0	0	0	648	
13	0	0	0	0	667	
14	0	0	0	0	676	
15	0	0	0	0	700	
0	0	0	0	0	712	
1	0	0	0	0	689	
2	0	0	0	0	664	
3	0	0	0	0	657	
4	0	0	0	0	679	
5	0	0	0	0	678	
6	0	0	0	0	658	
7	0	0	0	0	647	
8	0	0	0	0	646	
9	0	0	0	0	655	
10	0	0	0	0	647	
11	0	0	0	0	641	
12	0	0	0	0	651	
13	0	0	0	0	664	
14	0	0	0	0	664	
15	0	0	0	0	657	
0	0	0	0	0	665	
1	0	0	0	0	684	
2	0	0	0	0	688	
3	0	0	0	0	690	
4	0	0	0	0	704	
5	0	0	0	0	715	
6	0	0	0	0	719	
7	0	0	0	0	718	
8	0	0	0	0	707	
9	0	0	0	0	686	
10	0	0	0	0	670	
11	0	0	0	0	653	
12	0	0	0	0	655	
13	0	0	0	0	660	
14	0	0	0	0	653	
15	0	0	0	0	637	
0	0	0	0	0	633	
1	0	0	0	0	636	
2	0	0	0	0	625	
3	0	0	0	0	613	
4	0	0	0	0	625	
5	0	0	0	0	627	
6	0	0	0	0	607	
7	0	0	0	0	589	
8	0	0	0	0	587	
9	0	0	0	0	591	
10	0	0	0	0	586	
11	0	0	0	0	583	
12	0	0	0	0	599	
13	0	0	0	0	593	
14	0	0	0	0	592	
15	0	0	0	0	602	
0	0	0	0	0	619	
1	0	0	0	0	640	
2	0	0	0	0	632	
3	0	0	0	0	608	
4	0	0	0	0	591	
5	0	0	0	0	598	
6	0	0	0	0	596	
7	0	0	0	0	607	
8	0	0	0	0	627	
9	0	0	0	0	632	
10	0	0	0	0	622	
11	0	0	0	0	618	
12	0	0	0	0	645	
13	0	0	0	0	654	
14	0	0	0	0	652	
15	0	0	0	0	631	
0	0	0	0	0	636	
1	0	0	0	0	647	
2	0	0	0	0	636	
3	0	0	0	0	618	
4	0	0	0	0	632	
5	0	0	0	0	641	
6	0	0	0	0	632	
7	0	0	0	0	615	
8	0	0	0	0	617	
9	0	0	0	0	629	
10	0	0	0	0	625	
11	0	0	0	0	618	
12	0	0	0	0	618	
13	0	0	0	0	624	
14	0	0	0	0	604	
15	0	0	0	0	597	
0	0	0	0	0	611	
1	0	0	0	0	609	
2	0	0	0	0	612	
3	0	0	0	0	595	
4	0	0	0	0	599	
5	0	0	0	0	608	
6	0	0	0	0	603	
7	0	0	0	0	604	
8	0	0	0	0	605	
9	0	0	0	0	595	
10	0	0	0	0	595	
11	0	0	0	0	599	
12	0	0	0	0	609	
13	0	0	0	0	613	
14	0	0	0	0	601	
15	0	0	0	0	598	
0	0	0	0	0	610	
1	0	0	0	0	609	
2	0	0	0	0	595	
3	0	0	0	0	602	
4	0	0	0	0	622	
5	0	0	0	0	618	
6	0	0	0	0	612	
7	0	0	0	0	604	
8	0	0	0	0	603	
9	0	0	0	0	595	
10	0	0	0	0	584	
11	0	0	0	0	583	
12	0	0	0	0	587	
13	0	0	0	0	591	
14	0	0	0	0	585	
15	0	0	0	0	579	
0	0	0	0	0	609	
1	0	0	0	0	632	
2	0	0	0	0	630	
3	0	0	0	0	620	
4	0	0	0	0	600	
5	0	0	0	0	585	
6	0	0	0	0	576	
7	0	0	0	0	571	
8	0	0	0	0	584	
9	0	0	0	0	602	
10	0	0	0	0	610	
11	0	0	0	0	618	
12	0	0	0	0	625	
13	0	0	0	0	647	
14	0	0	0	0	636	
15	0	0	0	0	607	
0	0	0	0	0	591	
1	0	0	0	0	601	
2	0	0	0	0	612	
3	0	0	0	0	620	
4	0	0	0	0	647	
5	0	0	0	0	678	
6	0	0	0	0	669	
7	0	0	0	0	655	
8	0	0	0	0	658	
9	0	0	0	0	661	
10	0	0	0	0	656	
11	0	0	0	0	645	
12	0	0	0	0	648	
13	0	0	0	0	646	
14	0	0	0	0	630	
15	0	0	0	0	621	
0	0	0	0	0	620	
1	0	0	0	0	617	
2	0	0	0	0	603	
3	0	0	0	0	590	
4	0	0	0	0	600	
5	0	0	0	0	607	
6	0	0	0	0	606	
7	0	0	0	0	606	
8	0	0	0	0	606	
9	0	0	0	0	602	
10	0	0	0	0	592	
11	0	0	0	0	580	
12	0	0	0	0	602	
13	0	0	0	0	606	
14	0	0	0	0	596	
15	0	0	0	0	595	
0	0	0	0	0	606	
1	0	0	0	0	614	
2	0	0	0	0	609	
3	0	0	0	0	600	
4	0	0	0	0	606	
5	0	0	0	0	611	
6	0	0	0	0	608	
7	0	0	0	0	603	
8	0	0	0	0	607	
9	0	0	0	0	607	
10	0	0	0	0	609	
11	0	0	0	0	622	
12	0	0	0	0	632	
13	0	0	0	0	636	
14	0	0	0	0	618	
15	0	0	0	0	603	
0	0	0	0	0	609	
1	0	0	0	0	614	
2	0	0	0	0	607	
3	0	0	0	0	599	
4	0	0	0	0	609	
5	0	0	0	0	623	
6	0	0	0	0	629	
7	0	0	0	0	631	
8	0	0	0	0	632	
9	0	0	0	0	640	
10	0	0	0	0	634	
11	0	0	0	0	628	
12	0	0	0	0	626	
13	0	0	0	0	620	
14	0	0	0	0	616	
15	0	0	0	0	612	
0	0	0	0	0	620	
1	0	0	0	0	627	
2	0	0	0	0	621	
3	0	0	0	0	622	
4	0	0	0	0	625	
5	0	0	0	0	621	
6	0	0	0	0	610	
7	0	0	0	0	598	
8	0	0	0	0	603	
9	0	0	0	0	612	
10	0	0	0	0	609	
11	0	0	0	0	606	
12	0	0	0	0	615	
13	0	0	0	0	621	
14	0	0	0	0	619	
15	0	0	0	0	624	
0	0	0	0	0	633	
1	0	0	0	0	636	
2	0	0	0	0	619	
3	0	0	0	0	606	
4	0	0	0	0	607	
5	0	0	0	0	607	
6	0	0	0	0	599	
7	0	0	0	0	593	
8	0	0	0	0	595	
9	0	0	0	0	609	
10	0	0	0	0	610	
11	0	0	0	0	607	
12	0	0	0	0	619	
13	0	0	0	0	631	
14	0	0	0	0	625	
15	0	0	0	0	609	
0	0	0	0	0	585	
1	0	0	0	0	577	
2	0	0	0	0	577	
3	0	0	0	0	570	
4	0	0	0	0	581	
5	0	0	0	0	595	
6	0	0	0	0	603	
7	0	0	0	0	596	
8	0	0	0	0	607	
9	0	0	0	0	626	
10	0	0	0	0	624	
11	0	0	0	0	611	
12	0	0	0	0	615	
13	0	0	0	0	617	
14	0	0	0	0	611	
15	0	0	0	0	611	
0	0	0	0	0	615	
1	0	0	0	0	624	
2	0	0	0	0	622	
3	0	0	0	0	614	
4	0	0	0	0	611	
5	0	0	0	0	605	
6	0	0	0	0	593	
7	0	0	0	0	578	
8	0	0	0	0	576	
9	0	0	0	0	577	
10	0	0	0	0	567	
11	0	0	0	0	568	
12	0	0	0	0	583	
13	0	0	0	0	595	
14	0	0	0	0	601	
15	0	0	0	0	606	
0	0	0	0	0	620	
1	0	0	0	0	620	
2	0	0	0	0	615	
3	0	0	0	0	607	
4	0	0	0	0	604	
5	0	0	0	0	604	
6	0	0	0	0	603	
7	0	0	0	0	603	
8	0	0	0	0	612	
9	0	0	0	0	624	
10	0	0	0	0	618	
11	0	0	0	0	617	
12	0	0	0	0	630	
13	0	0	0	0	638	
14	0	0	0	0	630	
15	0	0	0	0	618	
0	0	0	0	0	619	
1	0	0	0	0	624	
2	0	0	0	0	612	
3	0	0	0	0	608	
4	0	0	0	0	615	
5	0	0	0	0	623	
6	0	0	0	0	621	
7	0	0	0	0	615	
8	0	0	0	0	618	
9	0	0	0	0	623	
10	0	0	0	0	616	
11	0	0	0	0	606	
12	0	0	0	0	607	
13	0	0	0	0	611	
14	0	0	0	0	607	
15	0	0	0	0	601	
0	0	0	0	0	606	
1	0	0	0	0	614	
2	0	0	0	0	611	
3	0	0	0	0	604	
4	0	0	0	0	611	
5	0	0	0	0	622	
6	0	0	0	0	619	
7	0	0	0	0	614	
8	0	0	0	0	620	
9	0	0	0	0	619	
10	0	0	0	0	610	
11	0	0	0	0	603	
12	0	0	0	0	607	
13	0	0	0	0	613	
14	0	0	0	0	607	
15	0	0	0	0	601	
0	0	0	0	0	606	
1	0	0	0	0	611	
2	0	0	0	0	606	
3	0	0	0	0	598	
4	0	0	0	0	604	
5	0	0	0	0	610	
6	0	0	0	0	612	
7	0	0	0	0	611	
8	0	0	0	0	617	
9	0	0	0	0	623	
10	0	0	0	0	613	
11	0	0	0	0	609	
12	0	0	0	0	615	
13	0	0	0	0	620	
14	0	0	0	0	614	
15	0	0	0	0	607	
0	0	0	0	0	613	
1	0	0	0	0	615	
2	0	0	0	0	611	
3	0	0	0	0	608	
4	0	0	0	0	615	
5	0	0	0	0	624	
6	0	0	0	0	623	
7	0	0	0	0	616	
8	0	0	0	0	625	
9	0	0	0	0	632	
10	0	0	0	0	623	
11	0	0	0	0	609	
12	0	0	0	0	603	
13	0	0	0	0	598	
14	0	0	0	0	588	
15	0	0	0	0	585	
0	0	0	0	0	593	
1	0	0	0	0	597	
2	0	0	0	0	591	
3	0	0	0	0	591	
4	0	0	0	0	603	
5	0	0	0	0	612	
6	0	0	0	0	604	
7	0	0	0	0	600	
8	0	0	0	0	615	
9	0	0	0	0	630	
10	0	0	0	0	617	
11	0	0	0	0	607	
12	0	0	0	0	608	
13	0	0	0	0	596	
14	0	0	0	0	579	
15	0	0	0	0	585	
0	0	0	0	0	589	
1	0	0	0	0	612	
2	0	0	0	0	622	
3	0	0	0	0	630	
4	0	0	0	0	624	
5	0	0	0	0	623	
6	0	0	0	0	611	
7	0	0	0	0	607	
8	0	0	0	0	632	
9	0	0	0	0	644	
10	0	0	0	0	653	
11	0	0	0	0	619	
12	0	0	0	0	627	
13	0	0	0	0	615	
14	0	0	0	0	603	
15	0	0	0	0	596	
0	0	0	0	0	645	
1	0	0	0	0	695	
2	0	0	0	0	647	
3	0	0	0	0	621	
4	0	0	0	0	631	
5	0	0	0	0	648	
6	0	0	0	0	624	
7	0	0	0	0	611	
8	0	0	0	0	620	
9	0	0	0	0	638	
10	0	0	0	0	630	
11	0	0	0	0	615	
12	0	0	0	0	627	
13	0	0	0	0	636	
14	0	0	0	0	623	
15	0	0	0	0	607	
0	0	0	0	0	614	
1	0	0	0	0	616	
2	0	0	0	0	605	
3	0	0	0	0	593	
4	0	0	0	0	588	
5	0	0	0	0	601	
6	0	0	0	0	627	
7	0	0	0	0	643	
8	0	0	0	0	645	
9	0	0	0	0	643	
10	0	0	0	0	625	
11	0	0	0	0	606	
12	0	0	0	0	604	
13	0	0	0	0	609	
14	0	0	0	0	604	
15	0	0	0	0	590	
0	0	0	0	0	585	
1	0	0	0	0	584	
2	0	0	0	0	571	
3	0	0	0	0	565	
4	0	0	0	0	579	
5	0	0	0	0	597	
6	0	0	0	0	629	
7	0	0	0	0	670	
8	0	0	0	0	656	
9	0	0	0	0	626	
10	0	0	0	0	599	
11	0	0	0	0	592	
12	0	0	0	0	604	
13	0	0	0	0	610	
14	0	0	0	0	606	
15	0	0	0	0	605	
0	0	0	0	0	612	
1	0	0	0	0	619	
2	0	0	0	0	614	
3	0	0	0	0	608	
4	0	0	0	0	613	
5	0	0	0	0	604	
6	0	0	0	0	614	
7	0	0	0	0	620	
8	0	0	0	0	603	
9	0	0	0	0	612	
10	0	0	0	0	639	
11	0	0	0	0	579	
12	0	0	0	0	579	
13	0	0	0	0	590	
14	0	0	0	0	583	
15	0	0	0	0	558	
0	0	0	0	0	568	
1	0	0	0	0	574	
2	0	0	0	0	583	
3	0	0	0	0	580	
4	0	0	0	0	594	
5	0	0	0	0	613	
6	0	0	0	0	612	
7	0	0	0	0	608	
8	0	0	0	0	614	
9	0	0	0	0	622	
10	0	0	0	0	608	
11	0	0	0	0	598	
12	0	0	0	0	598	
13	0	0	0	0	601	
14	0	0	0	0	586	
15	0	0	0	0	577	
0	0	0	0	0	607	
1	0	0	0	0	643	
2	0	0	0	0	638	
3	0	0	0	0	627	
4	0	0	0	0	607	
5	0	0	0	0	622	
6	0	0	0	0	581	
7	0	0	0	0	566	
8	0	0	0	0	580	
9	0	0	0	0	558	
10	0	0	0	0	591	
11	0	0	0	0	580	
12	0	0	0	0	606	
13	0	0	0	0	646	
14	0	0	0	0	665	
15	0	0	0	0	659	
0	0	0	0	0	634	
1	0	0	0	0	611	
2	0	0	0	0	589	
3	0	0	0	0	575	
4	0	0	0	0	586	
5	0	0	0	0	609	
6	0	0	0	0	634	
7	0	0	0	0	656	
8	0	0	0	0	684	
9	0	0	0	0	692	
10	0	0	0	0	674	
11	0	0	0	0	651	
12	0	0	0	0	636	
13	0	0	0	0	665	
14	0	0	0	0	656	
15	0	0	0	0	659	
0	0	0	0	0	688	
1	0	0	0	0	718	
2	0	0	0	0	717	
3	0	0	0	0	689	
4	0	0	0	0	668	
5	0	0	0	0	657	
6	0	0	0	0	635	
7	0	0	0	0	604	
8	0	0	0	0	590	
9	0	0	0	0	587	
10	0	0	0	0	584	
11	0	0	0	0	600	
12	0	0	0	0	616	
13	0	0	0	0	631	
14	0	0	0	0	635	
15	0	0	0	0	627	
0	0	0	0	0	627	
1	0	0	0	0	623	
2	0	0	0	0	610	
3	0	0	0	0	605	
4	0	0	0	0	614	
5	0	0	0	0	618	
6	0	0	0	0	610	
7	0	0	0	0	606	
8	0	0	0	0	615	
9	0	0	0	0	637	
10	0	0	0	0	649	
11	0	0	0	0	640	
12	0	0	0	0	633	
13	0	0	0	0	623	
14	0	0	0	0	608	
15	0	0	0	0	594	
0	0	0	0	0	590	
1	0	0	0	0	588	
2	0	0	0	0	579	
3	0	0	0	0	572	
4	0	0	0	0	576	
5	0	0	0	0	579	
6	0	0	0	0	579	
7	0	0	0	0	576	
8	0	0	0	0	579	
9	0	0	0	0	580	
10	0	0	0	0	578	
11	0	0	0	0	577	
12	0	0	0	0	587	
13	0	0	0	0	603	
14	0	0	0	0	611	
15	0	0	0	0	607	
0	0	0	0	0	612	
1	0	0	0	0	617	
2	0	0	0	0	612	
3	0	0	0	0	600	
4	0	0	0	0	601	
5	0	0	0	0	599	
6	0	0	0	0	585	
7	0	0	0	0	575	
8	0	0	0	0	579	
9	0	0	0	0	585	
10	0	0	0	0	589	
11	0	0	0	0	592	
12	0	0	0	0	600	
13	0	0	0	0	609	
14	0	0	0	0	610	
15	0	0	0	0	614	
0	0	0	0	0	625	
1	0	0	0	0	630	
2	0	0	0	0	620	
3	0	0	0	0	606	
4	0	0	0	0	607	
5	0	0	0	0	615	
6	0	0	0	0	613	
7	0	0	0	0	607	
8	0	0	0	0	610	
9	0	0	0	0	616	
10	0	0	0	0	611	
11	0	0	0	0	605	
12	0	0	0	0	610	
13	0	0	0	0	615	
14	0	0	0	0	613	
15	0	0	0	0	607	
0	0	0	0	0	610	
1	0	0	0	0	616	
2	0	0	0	0	617	
3	0	0	0	0	615	
4	0	0	0	0	621	
5	0	0	0	0	625	
6	0	0	0	0	617	
7	0	0	0	0	594	
8	0	0	0	0	598	
9	0	0	0	0	605	
10	0	0	0	0	597	
11	0	0	0	0	596	
12	0	0	0	0	655	
13	0	0	0	0	582	
14	0	0	0	0	591	
15	0	0	0	0	611	
0	0	0	0	0	625	
1	0	0	0	0	631	
2	0	0	0	0	623	
3	0	0	0	0	622	
4	0	0	0	0	629	
5	0	0	0	0	634	
6	0	0	0	0	627	
7	0	0	0	0	620	
8	0	0	0	0	627	
9	0	0	0	0	636	
10	0	0	0	0	629	
11	0	0	0	0	622	
12	0	0	0	0	627	
13	0	0	0	0	635	
14	0	0	0	0	638	
15	0	0	0	0	635	
0	0	0	0	0	638	
1	0	0	0	0	643	
2	0	0	0	0	641	
3	0	0	0	0	641	
4	0	0	0	0	648	
5	0	0	0	0	656	
6	0	0	0	0	650	
7	0	0	0	0	643	
8	0	0	0	0	646	
9	0	0	0	0	646	
10	0	0	0	0	632	
11	0	0	0	0	613	
12	0	0	0	0	606	
13	0	0	0	0	611	
14	0	0	0	0	607	
15	0	0	0	0	617	
0	0	0	0	0	641	
1	0	0	0	0	652	
2	0	0	0	0	658	
3	0	0	0	0	669	
4	0	0	0	0	663	
5	0	0	0	0	662	
6	0	0	0	0	655	
7	0	0	0	0	641	
8	0	0	0	0	638	
9	0	0	0	0	640	
10	0	0	0	0	634	
11	0	0	0	0	632	
12	0	0	0	0	633	
13	0	0	0	0	636	
14	0	0	0	0	632	
15	0	0	0	0	622	
0	0	0	0	0	622	
1	0	0	0	0	621	
2	0	0	0	0	608	
3	0	0	0	0	596	
4	0	0	0	0	594	
5	0	0	0	0	594	
6	0	0	0	0	585	
7	0	0	0	0	573	
8	0	0	0	0	572	
9	0	0	0	0	569	
10	0	0	0	0	558	
11	0	0	0	0	551	
12	0	0	0	0	563	
13	0	0	0	0	578	
14	0	0	0	0	574	
15	0	0	0	0	563	
0	0	0	0	0	566	
1	0	0	0	0	569	
2	0	0	0	0	564	
3	0	0	0	0	562	
4	0	0	0	0	568	
5	0	0	0	0	585	
6	0	0	0	0	570	
7	0	0	0	0	555	
8	0	0	0	0	582	
9	0	0	0	0	592	
10	0	0	0	0	584	
11	0	0	0	0	582	
12	0	0	0	0	589	
13	0	0	0	0	594	
14	0	0	0	0	584	
15	0	0	0	0	577	
0	0	0	0	0	584	
1	0	0	0	0	600	
2	0	0	0	0	610	
3	0	0	0	0	611	
4	0	0	0	0	622	
5	0	0	0	0	650	
6	0	0	0	0	664	
7	0	0	0	0	667	
8	0	0	0	0	674	
9	0	0	0	0	684	
10	0	0	0	0	678	
11	0	0	0	0	675	
12	0	0	0	0	678	
13	0	0	0	0	679	
14	0	0	0	0	668	
15	0	0	0	0	659	
0	0	0	0	0	657	
1	0	0	0	0	659	
2	0	0	0	0	651	
3	0	0	0	0	639	
4	0	0	0	0	643	
5	0	0	0	0	646	
6	0	0	0	0	641	
7	0	0	0	0	633	
8	0	0	0	0	637	
9	0	0	0	0	638	
10	0	0	0	0	632	
11	0	0	0	0	624	
12	0	0	0	0	623	
13	0	0	0	0	622	
14	0	0	0	0	613	
15	0	0	0	0	603	
0	0	0	0	0	604	
1	0	0	0	0	603	
2	0	0	0	0	593	
3	0	0	0	0	591	
4	0	0	0	0	599	
5	0	0	0	0	602	
6	0	0	0	0	596	
7	0	0	0	0	591	
8	0	0	0	0	595	
9	0	0	0	0	596	
10	0	0	0	0	587	
11	0	0	0	0	583	
12	0	0	0	0	597	
13	0	0	0	0	605	
14	0	0	0	0	607	
15	0	0	0	0	605	
0	0	0	0	0	612	
1	0	0	0	0	617	
2	0	0	0	0	612	
3	0	0	0	0	609	
4	0	0	0	0	613	
5	0	0	0	0	616	
6	0	0	0	0	611	
7	0	0	0	0	604	
8	0	0	0	0	607	
9	0	0	0	0	614	
10	0	0	0	0	618	
11	0	0	0	0	621	
12	0	0	0	0	629	
13	0	0	0	0	633	
14	0	0	0	0	623	
15	0	0	0	0	612	
0	0	0	0	0	610	
1	0	0	0	0	611	
2	0	0	0	0	608	
3	0	0	0	0	606	
4	0	0	0	0	614	
5	0	0	0	0	626	
6	0	0	0	0	627	
7	0	0	0	0	634	
8	0	0	0	0	655	
9	0	0	0	0	671	
10	0	0	0	0	672	
11	0	0	0	0	669	
12	0	0	0	0	669	
13	0	0	0	0	667	
14	0	0	0	0	664	
15	0	0	0	0	667	
0	0	0	0	0	679	
1	0	0	0	0	688	
2	0	0	0	0	683	
3	0	0	0	0	680	
4	0	0	0	0	690	
5	0	0	0	0	688	
6	0	0	0	0	671	
7	0	0	0	0	653	
8	0	0	0	0	647	
9	0	0	0	0	639	
10	0	0	0	0	624	
11	0	0	0	0	611	
12	0	0	0	0	609	
13	0	0	0	0	610	
14	0	0	0	0	603	
15	0	0	0	0	591	
0	0	0	0	0	595	
1	0	0	0	0	598	
2	0	0	0	0	589	
3	0	0	0	0	587	
4	0	0	0	0	593	
5	0	0	0	0	593	
6	0	0	0	0	583	
7	0	0	0	0	573	
8	0	0	0	0	572	
9	0	0	0	0	569	
10	0	0	0	0	556	
11	0	0	0	0	549	
12	0	0	0	0	563	
13	0	0	0	0	579	
14	0	0	0	0	577	
15	0	0	0	0	572	
0	0	0	0	0	583	
1	0	0	0	0	591	
2	0	0	0	0	589	
3	0	0	0	0	589	
4	0	0	0	0	600	
5	0	0	0	0	600	
6	0	0	0	0	590	
7	0	0	0	0	583	
8	0	0	0	0	590	
9	0	0	0	0	602	
10	0	0	0	0	605	
11	0	0	0	0	609	
12	0	0	0	0	627	
13	0	0	0	0	641	
14	0	0	0	0	637	
15	0	0	0	0	635	
0	0	0	0	0	647	
1	0	0	0	0	661	
2	0	0	0	0	670	
3	0	0	0	0	674	
4	0	0	0	0	684	
5	0	0	0	0	690	
6	0	0	0	0	676	
7	0	0	0	0	664	
8	0	0	0	0	663	
9	0	0	0	0	664	
10	0	0	0	0	664	
11	0	0	0	0	664	
12	0	0	0	0	671	
13	0	0	0	0	672	
14	0	0	0	0	660	
15	0	0	0	0	651	
0	0	0	0	0	655	
1	0	0	0	0	656	
2	0	0	0	0	646	
3	0	0	0	0	638	
4	0	0	0	0	639	
5	0	0	0	0	639	
6	0	0	0	0	627	
7	0	0	0	0	618	
8	0	0	0	0	617	
9	0	0	0	0	614	
10	0	0	0	0	608	
11	0	0	0	0	604	
12	0	0	0	0	612	
13	0	0	0	0	614	
14	0	0	0	0	608	
15	0	0	0	0	601	
0	0	0	0	0	604	
1	0	0	0	0	611	
2	0	0	0	0	611	
3	0	0	0	0	613	
4	0	0	0	0	620	
5	0	0	0	0	625	
6	0	0	0	0	619	
7	0	0	0	0	613	
8	0	0	0	0	621	
9	0	0	0	0	627	
10	0	0	0	0	626	
11	0	0	0	0	624	
12	0	0	0	0	632	
13	0	0	0	0	639	
14	0	0	0	0	636	
15	0	0	0	0	643	
0	0	0	0	0	654	
1	0	0	0	0	658	
2	0	0	0	0	652	
3	0	0	0	0	636	
4	0	0	0	0	631	
5	0	0	0	0	623	
6	0	0	0	0	608	
7	0	0	0	0	620	
8	0	0	0	0	640	
9	0	0	0	0	666	
10	0	0	0	0	678	
11	0	0	0	0	706	
12	0	0	0	0	730	
13	0	0	0	0	739	
14	0	0	0	0	717	
15	0	0	0	0	679	
0	0	0	0	0	667	
1	0	0	0	0	663	
2	0	0	0	0	652	
3	0	0	0	0	647	
4	0	0	0	0	652	
5	0	0	0	0	658	
6	0	0	0	0	651	
7	0	0	0	0	641	
8	0	0	0	0	639	
9	0	0	0	0	635	
10	0	0	0	0	621	
11	0	0	0	0	611	
12	0	0	0	0	610	
13	0	0	0	0	609	
14	0	0	0	0	592	
15	0	0	0	0	573	
0	0	0	0	0	573	
1	0	0	0	0	579	
2	0	0	0	0	575	
3	0	0	0	0	572	
4	0	0	0	0	574	
5	0	0	0	0	576	
6	0	0	0	0	567	
7	0	0	0	0	556	
8	0	0	0	0	557	
9	0	0	0	0	557	
10	0	0	0	0	546	
11	0	0	0	0	533	
12	0	0	0	0	532	
13	0	0	0	0	544	
14	0	0	0	0	555	
15	0	0	0	0	560	
0	0	0	0	0	569	
1	0	0	0	0	573	
2	0	0	0	0	572	
3	0	0	0	0	571	
4	0	0	0	0	576	
5	0	0	0	0	577	
6	0	0	0	0	566	
7	0	0	0	0	561	
8	0	0	0	0	575	
9	0	0	0	0	589	
10	0	0	0	0	598	
11	0	0	0	0	605	
12	0	0	0	0	622	
13	0	0	0	0	631	
14	0	0	0	0	627	
15	0	0	0	0	627	
0	0	0	0	0	636	
1	0	0	0	0	644	
2	0	0	0	0	641	
3	0	0	0	0	642	
4	0	0	0	0	656	
5	0	0	0	0	670	
6	0	0	0	0	673	
7	0	0	0	0	669	
8	0	0	0	0	679	
9	0	0	0	0	686	
10	0	0	0	0	678	
11	0	0	0	0	669	
12	0	0	0	0	669	
13	0	0	0	0	665	
14	0	0	0	0	658	
15	0	0	0	0	654	
0	0	0	0	0	655	
1	0	0	0	0	655	
2	0	0	0	0	642	
3	0	0	0	0	631	
4	0	0	0	0	629	
5	0	0	0	0	629	
6	0	0	0	0	622	
7	0	0	0	0	618	
8	0	0	0	0	627	
9	0	0	0	0	635	
10	0	0	0	0	629	
11	0	0	0	0	619	
12	0	0	0	0	620	
13	0	0	0	0	623	
14	0	0	0	0	619	
15	0	0	0	0	609	
0	0	0	0	0	610	
1	0	0	0	0	611	
2	0	0	0	0	604	
3	0	0	0	0	589	
4	0	0	0	0	595	
5	0	0	0	0	602	
6	0	0	0	0	599	
7	0	0	0	0	591	
8	0	0	0	0	600	
9	0	0	0	0	605	
10	0	0	0	0	605	
11	0	0	0	0	603	
12	0	0	0	0	610	
13	0	0	0	0	621	
14	0	0	0	0	627	
15	0	0	0	0	631	
0	0	0	0	0	644	
1	0	0	0	0	657	
2	0	0	0	0	655	
3	0	0	0	0	650	
4	0	0	0	0	649	
5	0	0	0	0	645	
6	0	0	0	0	629	
7	0	0	0	0	611	
8	0	0	0	0	607	
9	0	0	0	0	603	
10	0	0	0	0	592	
11	0	0	0	0	591	
12	0	0	0	0	606	
13	0	0	0	0	616	
14	0	0	0	0	623	
15	0	0	0	0	635	
0	0	0	0	0	653	
1	0	0	0	0	665	
2	0	0	0	0	660	
3	0	0	0	0	647	
4	0	0	0	0	647	
5	0	0	0	0	651	
6	0	0	0	0	645	
7	0	0	0	0	635	
8	0	0	0	0	634	
9	0	0	0	0	636	
10	0	0	0	0	630	
11	0	0	0	0	624	
12	0	0	0	0	627	
13	0	0	0	0	630	
14	0	0	0	0	620	
15	0	0	0	0	607	
0	0	0	0	0	605	
1	0	0	0	0	600	
2	0	0	0	0	587	
3	0	0	0	0	578	
4	0	0	0	0	580	
5	0	0	0	0	584	
6	0	0	0	0	578	
7	0	0	0	0	572	
8	0	0	0	0	577	
9	0	0	0	0	583	
10	0	0	0	0	575	
11	0	0	0	0	571	
12	0	0	0	0	577	
13	0	0	0	0	579	
14	0	0	0	0	577	
15	0	0	0	0	576	
0	0	0	0	0	582	
1	0	0	0	0	585	
2	0	0	0	0	581	
3	0	0	0	0	572	
4	0	0	0	0	578	
5	0	0	0	0	590	
6	0	0	0	0	598	
7	0	0	0	0	608	
8	0	0	0	0	622	
9	0	0	0	0	632	
10	0	0	0	0	629	
11	0	0	0	0	620	
12	0	0	0	0	620	
13	0	0	0	0	619	
14	0	0	0	0	612	
15	0	0	0	0	604	
0	0	0	0	0	604	
1	0	0	0	0	608	
2	0	0	0	0	604	
3	0	0	0	0	599	
4	0	0	0	0	604	
5	0	0	0	0	609	
6	0	0	0	0	606	
7	0	0	0	0	601	
8	0	0	0	0	614	
9	0	0	0	0	630	
10	0	0	0	0	635	
11	0	0	0	0	638	
12	0	0	0	0	647	
13	0	0	0	0	655	
14	0	0	0	0	654	
15	0	0	0	0	657	
0	0	0	0	0	668	
1	0	0	0	0	673	
2	0	0	0	0	650	
3	0	0	0	0	637	
4	0	0	0	0	632	
5	0	0	0	0	626	
6	0	0	0	0	622	
7	0	0	0	0	609	
8	0	0	0	0	608	
9	0	0	0	0	611	
10	0	0	0	0	601	
11	0	0	0	0	595	
12	0	0	0	0	604	
13	0	0	0	0	611	
14	0	0	0	0	608	
15	0	0	0	0	600	
0	0	0	0	0	602	
1	0	0	0	0	604	
2	0	0	0	0	592	
3	0	0	0	0	583	
4	0	0	0	0	588	
5	0	0	0	0	592	
6	0	0	0	0	591	
7	0	0	0	0	587	
8	0	0	0	0	592	
9	0	0	0	0	601	
10	0	0	0	0	599	
11	0	0	0	0	597	
12	0	0	0	0	605	
13	0	0	0	0	610	
14	0	0	0	0	604	
15	0	0	0	0	603	
0	0	0	0	0	610	
1	0	0	0	0	615	
2	0	0	0	0	613	
3	0	0	0	0	610	
4	0	0	0	0	616	
5	0	0	0	0	615	
6	0	0	0	0	611	
7	0	0	0	0	608	
8	0	0	0	0	612	
9	0	0	0	0	615	
10	0	0	0	0	609	
11	0	0	0	0	601	
12	0	0	0	0	604	
13	0	0	0	0	609	
14	0	0	0	0	608	
15	0	0	0	0	606	
0	0	0	0	0	617	
1	0	0	0	0	629	
2	0	0	0	0	628	
3	0	0	0	0	624	
4	0	0	0	0	627	
5	0	0	0	0	627	
6	0	0	0	0	618	
7	0	0	0	0	615	
8	0	0	0	0	629	
9	0	0	0	0	647	
10	0	0	0	0	659	
11	0	0	0	0	665	
12	0	0	0	0	674	
13	0	0	0	0	680	
14	0	0	0	0	679	
15	0	0	0	0	673	
0	0	0	0	0	678	
1	0	0	0	0	679	
2	0	0	0	0	670	
3	0	0	0	0	655	
4	0	0	0	0	647	
5	0	0	0	0	641	
6	0	0	0	0	633	
7	0	0	0	0	622	
8	0	0	0	0	627	
9	0	0	0	0	637	
10	0	0	0	0	634	
11	0	0	0	0	626	
12	0	0	0	0	625	
13	0	0	0	0	621	
14	0	0	0	0	606	
15	0	0	0	0	590	
0	0	0	0	0	583	
1	0	0	0	0	580	
2	0	0	0	0	565	
3	0	0	0	0	556	
4	0	0	0	0	561	
5	0	0	0	0	569	
6	0	0	0	0	568	
7	0	0	0	0	568	
8	0	0	0	0	569	
9	0	0	0	0	575	
10	0	0	0	0	573	
11	0	0	0	0	567	
12	0	0	0	0	568	
13	0	0	0	0	574	
14	0	0	0	0	572	
15	0	0	0	0	564	
0	0	0	0	0	569	
1	0	0	0	0	578	
2	0	0	0	0	577	
3	0	0	0	0	575	
4	0	0	0	0	583	
5	0	0	0	0	586	
6	0	0	0	0	582	
7	0	0	0	0	577	
8	0	0	0	0	586	
9	0	0	0	0	595	
10	0	0	0	0	600	
11	0	0	0	0	596	
12	0	0	0	0	603	
13	0	0	0	0	609	
14	0	0	0	0	609	
15	0	0	0	0	607	
0	0	0	0	0	614	
1	0	0	0	0	624	
2	0	0	0	0	623	
3	0	0	0	0	619	
4	0	0	0	0	627	
5	0	0	0	0	646	
6	0	0	0	0	659	
7	0	0	0	0	665	
8	0	0	0	0	674	
9	0	0	0	0	681	
10	0	0	0	0	675	
11	0	0	0	0	660	
12	0	0	0	0	660	
13	0	0	0	0	668	
14	0	0	0	0	673	
15	0	0	0	0	671	
0	0	0	0	0	676	
1	0	0	0	0	676	
2	0	0	0	0	664	
3	0	0	0	0	654	
4	0	0	0	0	654	
5	0	0	0	0	655	
6	0	0	0	0	652	
7	0	0	0	0	648	
8	0	0	0	0	659	
9	0	0	0	0	666	
10	0	0	0	0	664	
11	0	0	0	0	650	
12	0	0	0	0	646	
13	0	0	0	0	642	
14	0	0	0	0	632	
15	0	0	0	0	622	
0	0	0	0	0	625	
1	0	0	0	0	623	
2	0	0	0	0	616	
3	0	0	0	0	605	
4	0	0	0	0	607	
5	0	0	0	0	609	
6	0	0	0	0	604	
7	0	0	0	0	600	
8	0	0	0	0	606	
9	0	0	0	0	609	
10	0	0	0	0	603	
11	0	0	0	0	596	
12	0	0	0	0	601	
13	0	0	0	0	606	
14	0	0	0	0	601	
15	0	0	0	0	601	
0	0	0	0	0	613	
1	0	0	0	0	620	
2	0	0	0	0	615	
3	0	0	0	0	607	
4	0	0	0	0	611	
5	0	0	0	0	612	
6	0	0	0	0	606	
7	0	0	0	0	601	
8	0	0	0	0	608	
9	0	0	0	0	611	
10	0	0	0	0	603	
11	0	0	0	0	596	
12	0	0	0	0	599	
13	0	0	0	0	604	
14	0	0	0	0	604	
15	0	0	0	0	601	
0	0	0	0	0	607	
1	0	0	0	0	610	
2	0	0	0	0	599	
3	0	0	0	0	585	
4	0	0	0	0	587	
5	0	0	0	0	601	
6	0	0	0	0	604	
7	0	0	0	0	604	
8	0	0	0	0	618	
9	0	0	0	0	633	
10	0	0	0	0	656	
11	0	0	0	0	653	
12	0	0	0	0	643	
13	0	0	0	0	641	
14	0	0	0	0	633	
15	0	0	0	0	632	
0	0	0	0	0	644	
1	0	0	0	0	655	
2	0	0	0	0	658	
3	0	0	0	0	664	
4	0	0	0	0	679	
5	0	0	0	0	683	
6	0	0	0	0	670	
7	0	0	0	0	654	
8	0	0	0	0	649	
9	0	0	0	0	648	
10	0	0	0	0	638	
11	0	0	0	0	632	
12	0	0	0	0	641	
13	0	0	0	0	643	
14	0	0	0	0	645	
15	0	0	0	0	646	
0	0	0	0	0	651	
1	0	0	0	0	645	
2	0	0	0	0	623	
3	0	0	0	0	605	
4	0	0	0	0	601	
5	0	0	0	0	597	
6	0	0	0	0	591	
7	0	0	0	0	586	
8	0	0	0	0	589	
9	0	0	0	0	593	
10	0	0	0	0	591	
11	0	0	0	0	585	
12	0	0	0	0	591	
13	0	0	0	0	589	
14	0	0	0	0	576	
15	0	0	0	0	566	
0	0	0	0	0	570	
1	0	0	0	0	575	
2	0	0	0	0	569	
3	0	0	0	0	566	
4	0	0	0	0	574	
5	0	0	0	0	576	
6	0	0	0	0	568	
7	0	0	0	0	562	
8	0	0	0	0	572	
9	0	0	0	0	577	
10	0	0	0	0	574	
11	0	0	0	0	573	
12	0	0	0	0	580	
13	0	0	0	0	586	
14	0	0	0	0	582	
15	0	0	0	0	579	
0	0	0	0	0	586	
1	0	0	0	0	595	
2	0	0	0	0	591	
3	0	0	0	0	581	
4	0	0	0	0	589	
5	0	0	0	0	600	
6	0	0	0	0	598	
7	0	0	0	0	596	
8	0	0	0	0	606	
9	0	0	0	0	615	
10	0	0	0	0	625	
11	0	0	0	0	621	
12	0	0	0	0	617	
13	0	0	0	0	611	
14	0	0	0	0	601	
15	0	0	0	0	593	
0	0	0	0	0	608	
1	0	0	0	0	617	
2	0	0	0	0	616	
3	0	0	0	0	615	
4	0	0	0	0	625	
5	0	0	0	0	639	
6	0	0	0	0	638	
7	0	0	0	0	632	
8	0	0	0	0	637	
9	0	0	0	0	641	
10	0	0	0	0	640	
11	0	0	0	0	642	
12	0	0	0	0	651	
13	0	0	0	0	655	
14	0	0	0	0	651	
15	0	0	0	0	650	
0	0	0	0	0	660	
1	0	0	0	0	667	
2	0	0	0	0	657	
3	0	0	0	0	647	
4	0	0	0	0	645	
5	0	0	0	0	618	
6	0	0	0	0	607	
7	0	0	0	0	572	
8	0	0	0	0	602	
9	0	0	0	0	622	
10	0	0	0	0	620	
11	0	0	0	0	618	
12	0	0	0	0	616	
13	0	0	0	0	617	
14	0	0	0	0	613	
15	0	0	0	0	604	
0	0	0	0	0	607	
1	0	0	0	0	610	
2	0	0	0	0	606	
3	0	0	0	0	603	
4	0	0	0	0	614	
5	0	0	0	0	614	
6	0	0	0	0	605	
7	0	0	0	0	600	
8	0	0	0	0	603	
9	0	0	0	0	605	
10	0	0	0	0	598	
11	0	0	0	0	592	
12	0	0	0	0	601	
13	0	0	0	0	610	
14	0	0	0	0	605	
15	0	0	0	0	600	
0	0	0	0	0	608	
1	0	0	0	0	617	
2	0	0	0	0	612	
3	0	0	0	0	604	
4	0	0	0	0	604	
5	0	0	0	0	607	
6	0	0	0	0	600	
7	0	0	0	0	588	
8	0	0	0	0	591	
9	0	0	0	0	596	
10	0	0	0	0	592	
11	0	0	0	0	588	
12	0	0	0	0	589	
13	0	0	0	0	593	
14	0	0	0	0	590	
15	0	0	0	0	588	
0	0	0	0	0	595	
1	0	0	0	0	600	
2	0	0	0	0	597	
3	0	0	0	0	600	
4	0	0	0	0	607	
5	0	0	0	0	609	
6	0	0	0	0	605	
7	0	0	0	0	603	
8	0	0	0	0	614	
9	0	0	0	0	623	
10	0	0	0	0	626	
11	0	0	0	0	628	
12	0	0	0	0	639	
13	0	0	0	0	645	
14	0	0	0	0	640	
15	0	0	0	0	637	
0	0	0	0	0	643	
1	0	0	0	0	653	
2	0	0	0	0	653	
3	0	0	0	0	652	
4	0	0	0	0	665	
5	0	0	0	0	672	
6	0	0	0	0	676	
7	0	0	0	0	673	
8	0	0	0	0	673	
9	0	0	0	0	671	
10	0	0	0	0	658	
11	0	0	0	0	647	
12	0	0	0	0	647	
13	0	0	0	0	639	
14	0	0	0	0	634	
15	0	0	0	0	641	
0	0	0	0	0	657	
1	0	0	0	0	670	
2	0	0	0	0	670	
3	0	0	0	0	663	
4	0	0	0	0	666	
5	0	0	0	0	659	
6	0	0	0	0	636	
7	0	0	0	0	622	
8	0	0	0	0	615	
9	0	0	0	0	616	
10	0	0	0	0	611	
11	0	0	0	0	605	
12	0	0	0	0	609	
13	0	0	0	0	621	
14	0	0	0	0	623	
15	0	0	0	0	616	
0	0	0	0	0	614	
1	0	0	0	0	613	
2	0	0	0	0	596	
3	0	0	0	0	589	
4	0	0	0	0	597	
5	0	0	0	0	595	
6	0	0	0	0	577	
7	0	0	0	0	564	
8	0	0	0	0	572	
9	0	0	0	0	573	
10	0	0	0	0	565	
11	0	0	0	0	556	
12	0	0	0	0	559	
13	0	0	0	0	560	
14	0	0	0	0	551	
15	0	0	0	0	541	
0	0	0	0	0	545	
1	0	0	0	0	555	
2	0	0	0	0	549	
3	0	0	0	0	540	
4	0	0	0	0	543	
5	0	0	0	0	548	
6	0	0	0	0	545	
7	0	0	0	0	537	
8	0	0	0	0	541	
9	0	0	0	0	552	
10	0	0	0	0	563	
11	0	0	0	0	569	
12	0	0	0	0	582	
13	0	0	0	0	594	
14	0	0	0	0	596	
15	0	0	0	0	597	
0	0	0	0	0	605	
1	0	0	0	0	607	
2	0	0	0	0	583	
3	0	0	0	0	554	
4	0	0	0	0	549	
5	0	0	0	0	558	
6	0	0	0	0	566	
7	0	0	0	0	595	
8	0	0	0	0	634	
9	0	0	0	0	665	
10	0	0	0	0	671	
11	0	0	0	0	652	
12	0	0	0	0	631	
13	0	0	0	0	619	
14	0	0	0	0	604	
15	0	0	0	0	592	
0	0	0	0	0	604	
1	0	0	0	0	619	
2	0	0	0	0	627	
3	0	0	0	0	635	
4	0	0	0	0	668	
5	0	0	0	0	692	
6	0	0	0	0	690	
7	0	0	0	0	664	
8	0	0	0	0	650	
9	0	0	0	0	646	
10	0	0	0	0	636	
11	0	0	0	0	630	
12	0	0	0	0	632	
13	0	0	0	0	633	
14	0	0	0	0	648	
15	0	0	0	0	666	
0	0	0	0	0	679	
1	0	0	0	0	685	
2	0	0	0	0	669	
3	0	0	0	0	647	
4	0	0	0	0	639	
5	0	0	0	0	636	
6	0	0	0	0	626	
7	0	0	0	0	616	
8	0	0	0	0	627	
9	0	0	0	0	636	
10	0	0	0	0	632	
11	0	0	0	0	620	
12	0	0	0	0	611	
13	0	0	0	0	605	
14	0	0	0	0	588	
15	0	0	0	0	576	
0	0	0	0	0	575	
1	0	0	0	0	576	
2	0	0	0	0	571	
3	0	0	0	0	584	
4	0	0	0	0	593	
5	0	0	0	0	609	
6	0	0	0	0	615	
7	0	0	0	0	604	
8	0	0	0	0	600	
9	0	0	0	0	597	
10	0	0	0	0	586	
11	0	0	0	0	580	
12	0	0	0	0	598	
13	0	0	0	0	614	
14	0	0	0	0	611	
15	0	0	0	0	603	
0	0	0	0	0	605	
1	0	0	0	0	610	
2	0	0	0	0	601	
3	0	0	0	0	598	
4	0	0	0	0	607	
5	0	0	0	0	619	
6	0	0	0	0	621	
7	0	0	0	0	619	
8	0	0	0	0	625	
9	0	0	0	0	629	
10	0	0	0	0	623	
11	0	0	0	0	612	
12	0	0	0	0	605	
13	0	0	0	0	606	
14	0	0	0	0	604	
15	0	0	0	0	603	
0	0	0	0	0	604	
1	0	0	0	0	611	
2	0	0	0	0	612	
3	0	0	0	0	597	
4	0	0	0	0	611	
5	0	0	0	0	619	
6	0	0	0	0	617	
7	0	0	0	0	623	
8	0	0	0	0	643	
9	0	0	0	0	646	
10	0	0	0	0	640	
11	0	0	0	0	634	
12	0	0	0	0	641	
13	0	0	0	0	642	
14	0	0	0	0	633	
15	0	0	0	0	618	
0	0	0	0	0	622	
1	0	0	0	0	627	
2	0	0	0	0	632	
3	0	0	0	0	637	
4	0	0	0	0	648	
5	0	0	0	0	654	
6	0	0	0	0	654	
7	0	0	0	0	655	
8	0	0	0	0	661	
9	0	0	0	0	665	
10	0	0	0	0	661	
11	0	0	0	0	652	
12	0	0	0	0	653	
13	0	0	0	0	655	
14	0	0	0	0	649	
15	0	0	0	0	640	
0	0	0	0	0	643	
1	0	0	0	0	654	
2	0	0	0	0	653	
3	0	0	0	0	643	
4	0	0	0	0	644	
5	0	0	0	0	639	
6	0	0	0	0	622	
7	0	0	0	0	607	
8	0	0	0	0	604	
9	0	0	0	0	602	
10	0	0	0	0	592	
11	0	0	0	0	589	
12	0	0	0	0	595	
13	0	0	0	0	598	
14	0	0	0	0	597	
15	0	0	0	0	588	
0	0	0	0	0	589	
1	0	0	0	0	589	
2	0	0	0	0	579	
3	0	0	0	0	572	
4	0	0	0	0	577	
5	0	0	0	0	575	
6	0	0	0	0	568	
7	0	0	0	0	563	
8	0	0	0	0	566	
9	0	0	0	0	570	
10	0	0	0	0	564	
11	0	0	0	0	557	
12	0	0	0	0	562	
13	0	0	0	0	568	
14	0	0	0	0	565	
15	0	0	0	0	565	
0	0	0	0	0	577	
1	0	0	0	0	582	
2	0	0	0	0	577	
3	0	0	0	0	570	
4	0	0	0	0	576	
5	0	0	0	0	582	
6	0	0	0	0	579	
7	0	0	0	0	577	
8	0	0	0	0	585	
9	0	0	0	0	597	
10	0	0	0	0	600	
11	0	0	0	0	607	
12	0	0	0	0	620	
13	0	0	0	0	626	
14	0	0	0	0	611	
15	0	0	0	0	597	
0	0	0	0	0	601	
1	0	0	0	0	610	
2	0	0	0	0	618	
3	0	0	0	0	620	
4	0	0	0	0	628	
5	0	0	0	0	639	
6	0	0	0	0	641	
7	0	0	0	0	634	
8	0	0	0	0	642	
9	0	0	0	0	645	
10	0	0	0	0	640	
11	0	0	0	0	637	
12	0	0	0	0	652	
13	0	0	0	0	668	
14	0	0	0	0	676	
15	0	0	0	0	676	
0	0	0	0	0	688	
1	0	0	0	0	690	
2	0	0	0	0	675	
3	0	0	0	0	661	
4	0	0	0	0	656	
5	0	0	0	0	656	
6	0	0	0	0	646	
7	0	0	0	0	640	
8	0	0	0	0	649	
9	0	0	0	0	665	
10	0	0	0	0	665	
11	0	0	0	0	646	
12	0	0	0	0	631	
13	0	0	0	0	618	
14	0	0	0	0	600	
15	0	0	0	0	582	
0	0	0	0	0	582	
1	0	0	0	0	584	
2	0	0	0	0	581	
3	0	0	0	0	577	
4	0	0	0	0	585	
5	0	0	0	0	599	
6	0	0	0	0	597	
7	0	0	0	0	592	
8	0	0	0	0	599	
9	0	0	0	0	603	
10	0	0	0	0	596	
11	0	0	0	0	595	
12	0	0	0	0	598	
13	0	0	0	0	607	
14	0	0	0	0	596	
15	0	0	0	0	585	
0	0	0	0	0	587	
1	0	0	0	0	592	
2	0	0	0	0	592	
3	0	0	0	0	593	
4	0	0	0	0	610	
5	0	0	0	0	624	
6	0	0	0	0	627	
7	0	0	0	0	613	
8	0	0	0	0	603	
9	0	0	0	0	591	
10	0	0	0	0	575	
11	0	0	0	0	569	
12	0	0	0	0	580	
13	0	0	0	0	594	
14	0	0	0	0	586	
15	0	0	0	0	575	
0	0	0	0	0	572	
1	0	0	0	0	565	
2	0	0	0	0	565	
3	0	0	0	0	571	
4	0	0	0	0	580	
5	0	0	0	0	592	
6	0	0	0	0	586	
7	0	0	0	0	575	
8	0	0	0	0	572	
9	0	0	0	0	577	
10	0	0	0	0	570	
11	0	0	0	0	569	
12	0	0	0	0	580	
13	0	0	0	0	589	
14	0	0	0	0	591	
15	0	0	0	0	590	
0	0	0	0	0	597	
1	0	0	0	0	604	
2	0	0	0	0	599	
3	0	0	0	0	598	
4	0	0	0	0	609	
5	0	0	0	0	618	
6	0	0	0	0	609	
7	0	0	0	0	598	
8	0	0	0	0	598	
9	0	0	0	0	600	
10	0	0	0	0	591	
11	0	0	0	0	586	
12	0	0	0	0	594	
13	0	0	0	0	601	
14	0	0	0	0	596	
15	0	0	0	0	591	
0	0	0	0	0	598	
1	0	0	0	0	604	
2	0	0	0	0	602	
3	0	0	0	0	600	
4	0	0	0	0	605	
5	0	0	0	0	609	
6	0	0	0	0	605	
7	0	0	0	0	604	
8	0	0	0	0	615	
9	0	0	0	0	623	
10	0	0	0	0	622	
11	0	0	0	0	619	
12	0	0	0	0	624	
13	0	0	0	0	627	
14	0	0	0	0	620	
15	0	0	0	0	610	
0	0	0	0	0	610	
1	0	0	0	0	613	
2	0	0	0	0	607	
3	0	0	0	0	601	
4	0	0	0	0	601	
5	0	0	0	0	606	
6	0	0	0	0	605	
7	0	0	0	0	602	
8	0	0	0	0	611	
9	0	0	0	0	620	
10	0	0	0	0	617	
11	0	0	0	0	607	
12	0	0	0	0	610	
13	0	0	0	0	612	
14	0	0	0	0	602	
15	0	0	0	0	590	
0	0	0	0	0	587	
1	0	0	0	0	587	
2	0	0	0	0	595	
3	0	0	0	0	592	
4	0	0	0	0	606	
5	0	0	0	0	614	
6	0	0	0	0	612	
7	0	0	0	0	606	
8	0	0	0	0	609	
9	0	0	0	0	611	
10	0	0	0	0	607	
11	0	0	0	0	600	
12	0	0	0	0	612	
13	0	0	0	0	622	
14	0	0	0	0	621	
15	0	0	0	0	615	
0	0	0	0	0	626	
1	0	0	0	0	630	
2	0	0	0	0	627	
3	0	0	0	0	619	
4	0	0	0	0	626	
5	0	0	0	0	633	
6	0	0	0	0	615	
7	0	0	0	0	596	
8	0	0	0	0	601	
9	0	0	0	0	601	
10	0	0	0	0	588	
11	0	0	0	0	580	
12	0	0	0	0	596	
13	0	0	0	0	608	
14	0	0	0	0	604	
15	0	0	0	0	601	
0	0	0	0	0	609	
1	0	0	0	0	618	
2	0	0	0	0	621	
3	0	0	0	0	626	
4	0	0	0	0	638	
5	0	0	0	0	653	
6	0	0	0	0	651	
7	0	0	0	0	647	
8	0	0	0	0	649	
9	0	0	0	0	657	
10	0	0	0	0	668	
11	0	0	0	0	674	
12	0	0	0	0	692	
13	0	0	0	0	699	
14	0	0	0	0	680	
15	0	0	0	0	641	
0	0	0	0	0	634	
1	0	0	0	0	644	
2	0	0	0	0	642	
3	0	0	0	0	645	
4	0	0	0	0	694	
5	0	0	0	0	732	
6	0	0	0	0	725	
7	0	0	0	0	704	
8	0	0	0	0	685	
9	0	0	0	0	664	
10	0	0	0	0	661	
11	0	0	0	0	666	
12	0	0	0	0	671	
13	0	0	0	0	668	
14	0	0	0	0	645	
15	0	0	0	0	648	
0	0	0	0	0	655	
1	0	0	0	0	659	
2	0	0	0	0	655	
3	0	0	0	0	639	
4	0	0	0	0	637	
5	0	0	0	0	639	
6	0	0	0	0	628	
7	0	0	0	0	610	
8	0	0	0	0	599	
9	0	0	0	0	597	
10	0	0	0	0	585	
11	0	0	0	0	573	
12	0	0	0	0	570	
13	0	0	0	0	569	
14	0	0	0	0	558	
15	0	0	0	0	552	
0	0	0	0	0	560	
1	0	0	0	0	568	
2	0	0	0	0	563	
3	0	0	0	0	551	
4	0	0	0	0	551	
5	0	0	0	0	555	
6	0	0	0	0	551	
7	0	0	0	0	545	
8	0	0	0	0	554	
9	0	0	0	0	559	
10	0	0	0	0	553	
11	0	0	0	0	548	
12	0	0	0	0	553	
13	0	0	0	0	563	
14	0	0	0	0	557	
15	0	0	0	0	551	
0	0	0	0	0	559	
1	0	0	0	0	567	
2	0	0	0	0	560	
3	0	0	0	0	557	
4	0	0	0	0	562	
5	0	0	0	0	575	
6	0	0	0	0	572	
7	0	0	0	0	563	
8	0	0	0	0	571	
9	0	0	0	0	582	
10	0	0	0	0	585	
11	0	0	0	0	579	
12	0	0	0	0	591	
13	0	0	0	0	602	
14	0	0	0	0	604	
15	0	0	0	0	582	
0	0	0	0	0	559	
1	0	0	0	0	555	
2	0	0	0	0	552	
3	0	0	0	0	560	
4	0	0	0	0	580	
5	0	0	0	0	611	
6	0	0	0	0	632	
7	0	0	0	0	645	
8	0	0	0	0	650	
9	0	0	0	0	634	
10	0	0	0	0	612	
11	0	0	0	0	610	
12	0	0	0	0	636	
13	0	0	0	0	660	
14	0	0	0	0	680	
15	0	0	0	0	697	
0	0	0	0	0	720	
1	0	0	0	0	724	
2	0	0	0	0	713	
3	0	0	0	0	697	
4	0	0	0	0	694	
5	0	0	0	0	696	
6	0	0	0	0	691	
7	0	0	0	0	685	
8	0	0	0	0	694	
9	0	0	0	0	703	
10	0	0	0	0	703	
11	0	0	0	0	706	
12	0	0	0	0	711	
13	0	0	0	0	710	
14	0	0	0	0	694	
15	0	0	0	0	677	
0	0	0	0	0	674	
1	0	0	0	0	671	
2	0	0	0	0	661	
3	0	0	0	0	651	
4	0	0	0	0	651	
5	0	0	0	0	651	
6	0	0	0	0	637	
7	0	0	0	0	621	
8	0	0	0	0	619	
9	0	0	0	0	618	
10	0	0	0	0	606	
11	0	0	0	0	597	
12	0	0	0	0	600	
13	0	0	0	0	603	
14	0	0	0	0	595	
15	0	0	0	0	590	
0	0	0	0	0	593	
1	0	0	0	0	595	
2	0	0	0	0	587	
3	0	0	0	0	580	
4	0	0	0	0	588	
5	0	0	0	0	596	
6	0	0	0	0	592	
7	0	0	0	0	582	
8	0	0	0	0	583	
9	0	0	0	0	585	
10	0	0	0	0	578	
11	0	0	0	0	575	
12	0	0	0	0	587	
13	0	0	0	0	600	
14	0	0	0	0	604	
15	0	0	0	0	607	
0	0	0	0	0	613	
1	0	0	0	0	612	
2	0	0	0	0	609	
3	0	0	0	0	600	
4	0	0	0	0	607	
5	0	0	0	0	616	
6	0	0	0	0	614	
7	0	0	0	0	612	
8	0	0	0	0	622	
9	0	0	0	0	629	
10	0	0	0	0	631	
11	0	0	0	0	627	
12	0	0	0	0	631	
13	0	0	0	0	640	
14	0	0	0	0	639	
15	0	0	0	0	624	
0	0	0	0	0	615	
1	0	0	0	0	608	
2	0	0	0	0	600	
3	0	0	0	0	599	
4	0	0	0	0	610	
5	0	0	0	0	615	
6	0	0	0	0	622	
7	0	0	0	0	611	
8	0	0	0	0	610	
9	0	0	0	0	611	
10	0	0	0	0	600	
11	0	0	0	0	582	
12	0	0	0	0	601	
13	0	0	0	0	625	
14	0	0	0	0	648	
15	0	0	0	0	684	
0	0	0	0	0	714	
1	0	0	0	0	727	
2	0	0	0	0	712	
3	0	0	0	0	691	
4	0	0	0	0	675	
5	0	0	0	0	659	
6	0	0	0	0	659	
7	0	0	0	0	671	
8	0	0	0	0	687	
9	0	0	0	0	699	
10	0	0	0	0	692	
11	0	0	0	0	684	
12	0	0	0	0	678	
13	0	0	0	0	678	
14	0	0	0	0	665	
15	0	0	0	0	651	
0	0	0	0	0	643	
1	0	0	0	0	639	
2	0	0	0	0	626	
3	0	0	0	0	617	
4	0	0	0	0	620	
5	0	0	0	0	623	
6	0	0	0	0	613	
7	0	0	0	0	604	
8	0	0	0	0	603	
9	0	0	0	0	601	
10	0	0	0	0	595	
11	0	0	0	0	590	
12	0	0	0	0	600	
13	0	0	0	0	599	
14	0	0	0	0	594	
15	0	0	0	0	587	
0	0	0	0	0	585	
1	0	0	0	0	584	
2	0	0	0	0	571	
3	0	0	0	0	556	
4	0	0	0	0	553	
5	0	0	0	0	552	
6	0	0	0	0	544	
7	0	0	0	0	542	
8	0	0	0	0	548	
9	0	0	0	0	556	
10	0	0	0	0	550	
11	0	0	0	0	544	
12	0	0	0	0	548	
13	0	0	0	0	549	
14	0	0	0	0	540	
15	0	0	0	0	535	
0	0	0	0	0	542	
1	0	0	0	0	549	
2	0	0	0	0	551	
3	0	0	0	0	553	
4	0	0	0	0	565	
5	0	0	0	0	572	
6	0	0	0	0	566	
7	0	0	0	0	559	
8	0	0	0	0	568	
9	0	0	0	0	572	
10	0	0	0	0	568	
11	0	0	0	0	563	
12	0	0	0	0	570	
13	0	0	0	0	578	
14	0	0	0	0	579	
15	0	0	0	0	575	
0	0	0	0	0	581	
1	0	0	0	0	587	
2	0	0	0	0	582	
3	0	0	0	0	580	
4	0	0	0	0	603	
5	0	0	0	0	619	
6	0	0	0	0	630	
7	0	0	0	0	635	
8	0	0	0	0	637	
9	0	0	0	0	647	
10	0	0	0	0	650	
11	0	0	0	0	657	
12	0	0	0	0	673	
13	0	0	0	0	683	
14	0	0	0	0	672	
15	0	0	0	0	654	
0	0	0	0	0	650	
1	0	0	0	0	654	
2	0	0	0	0	654	
3	0	0	0	0	655	
4	0	0	0	0	666	
5	0	0	0	0	678	
6	0	0	0	0	670	
7	0	0	0	0	661	
8	0	0	0	0	662	
9	0	0	0	0	662	
10	0	0	0	0	661	
11	0	0	0	0	660	
12	0	0	0	0	672	
13	0	0	0	0	675	
14	0	0	0	0	670	
15	0	0	0	0	659	
0	0	0	0	0	654	
1	0	0	0	0	648	
2	0	0	0	0	638	
3	0	0	0	0	633	
4	0	0	0	0	642	
5	0	0	0	0	652	
6	0	0	0	0	645	
7	0	0	0	0	635	
8	0	0	0	0	634	
9	0	0	0	0	633	
10	0	0	0	0	625	
11	0	0	0	0	618	
12	0	0	0	0	621	
13	0	0	0	0	623	
14	0	0	0	0	615	
15	0	0	0	0	605	
0	0	0	0	0	603	
1	0	0	0	0	604	
2	0	0	0	0	600	
3	0	0	0	0	592	
4	0	0	0	0	595	
5	0	0	0	0	597	
6	0	0	0	0	591	
7	0	0	0	0	586	
8	0	0	0	0	598	
9	0	0	0	0	609	
10	0	0	0	0	606	
11	0	0	0	0	597	
12	0	0	0	0	600	
13	0	0	0	0	604	
14	0	0	0	0	602	
15	0	0	0	0	599	
0	0	0	0	0	604	
1	0	0	0	0	612	
2	0	0	0	0	609	
3	0	0	0	0	603	
4	0	0	0	0	603	
5	0	0	0	0	608	
6	0	0	0	0	608	
7	0	0	0	0	615	
8	0	0	0	0	632	
9	0	0	0	0	645	
10	0	0	0	0	647	
11	0	0	0	0	641	
12	0	0	0	0	647	
13	0	0	0	0	654	
14	0	0	0	0	644	
15	0	0	0	0	644	
0	0	0	0	0	644	
1	0	0	0	0	649	
2	0	0	0	0	657	
3	0	0	0	0	661	
4	0	0	0	0	669	
5	0	0	0	0	686	
6	0	0	0	0	688	
7	0	0	0	0	680	
8	0	0	0	0	679	
9	0	0	0	0	677	
10	0	0	0	0	663	
11	0	0	0	0	655	
12	0	0	0	0	657	
13	0	0	0	0	660	
14	0	0	0	0	661	
15	0	0	0	0	668	
0	0	0	0	0	679	
1	0	0	0	0	682	
2	0	0	0	0	670	
3	0	0	0	0	652	
4	0	0	0	0	648	
5	0	0	0	0	652	
6	0	0	0	0	628	
7	0	0	0	0	611	
8	0	0	0	0	612	
9	0	0	0	0	607	
10	0	0	0	0	592	
11	0	0	0	0	586	
12	0	0	0	0	592	
13	0	0	0	0	594	
14	0	0	0	0	587	
15	0	0	0	0	579	
0	0	0	0	0	580	
1	0	0	0	0	573	
2	0	0	0	0	568	
3	0	0	0	0	563	
4	0	0	0	0	577	
5	0	0	0	0	591	
6	0	0	0	0	593	
7	0	0	0	0	588	
8	0	0	0	0	587	
9	0	0	0	0	585	
10	0	0	0	0	581	
11	0	0	0	0	566	
12	0	0	0	0	567	
13	0	0	0	0	572	
14	0	0	0	0	571	
15	0	0	0	0	564	
0	0	0	0	0	568	
1	0	0	0	0	572	
2	0	0	0	0	572	
3	0	0	0	0	569	
4	0	0	0	0	576	
5	0	0	0	0	591	
6	0	0	0	0	596	
7	0	0	0	0	592	
8	0	0	0	0	598	
9	0	0	0	0	591	
10	0	0	0	0	579	
11	0	0	0	0	569	
12	0	0	0	0	572	
13	0	0	0	0	588	
14	0	0	0	0	593	
15	0	0	0	0	585	
0	0	0	0	0	590	
1	0	0	0	0	594	
2	0	0	0	0	580	
3	0	0	0	0	589	
4	0	0	0	0	596	
5	0	0	0	0	595	
6	0	0	0	0	590	
7	0	0	0	0	600	
8	0	0	0	0	626	
9	0	0	0	0	650	
10	0	0	0	0	658	
11	0	0	0	0	662	
12	0	0	0	0	669	
13	0	0	0	0	654	
14	0	0	0	0	639	
15	0	0	0	0	628	
0	0	0	0	0	631	
1	0	0	0	0	637	
2	0	0	0	0	644	
3	0	0	0	0	658	
4	0	0	0	0	668	
5	0	0	0	0	667	
6	0	0	0	0	642	
7	0	0	0	0	618	
8	0	0	0	0	615	
9	0	0	0	0	628	
10	0	0	0	0	630	
11	0	0	0	0	631	
12	0	0	0	0	640	
13	0	0	0	0	647	
14	0	0	0	0	649	
15	0	0	0	0	649	
0	0	0	0	0	651	
1	0	0	0	0	652	
2	0	0	0	0	647	
3	0	0	0	0	643	
4	0	0	0	0	652	
5	0	0	0	0	659	
6	0	0	0	0	651	
7	0	0	0	0	645	
8	0	0	0	0	643	
9	0	0	0	0	640	
10	0	0	0	0	628	
11	0	0	0	0	624	
12	0	0	0	0	631	
13	0	0	0	0	639	
14	0	0	0	0	644	
15	0	0	0	0	642	
0	0	0	0	0	647	
1	0	0	0	0	641	
2	0	0	0	0	622	
3	0	0	0	0	606	
4	0	0	0	0	604	
5	0	0	0	0	607	
6	0	0	0	0	602	
7	0	0	0	0	595	
8	0	0	0	0	603	
9	0	0	0	0	614	
10	0	0	0	0	616	
11	0	0	0	0	609	
12	0	0	0	0	606	
13	0	0	0	0	604	
14	0	0	0	0	592	
15	0	0	0	0	583	
0	0	0	0	0	588	
1	0	0	0	0	602	
2	0	0	0	0	599	
3	0	0	0	0	589	
4	0	0	0	0	596	
5	0	0	0	0	606	
6	0	0	0	0	608	
7	0	0	0	0	604	
8	0	0	0	0	608	
9	0	0	0	0	613	
10	0	0	0	0	608	
11	0	0	0	0	605	
12	0	0	0	0	607	
13	0	0	0	0	618	
14	0	0	0	0	620	
15	0	0	0	0	613	
0	0	0	0	0	616	
1	0	0	0	0	624	
2	0	0	0	0	625	
3	0	0	0	0	619	
4	0	0	0	0	626	
5	0	0	0	0	631	
6	0	0	0	0	624	
7	0	0	0	0	622	
8	0	0	0	0	630	
9	0	0	0	0	634	
10	0	0	0	0	630	
11	0	0	0	0	625	
12	0	0	0	0	632	
13	0	0	0	0	638	
14	0	0	0	0	634	
15	0	0	0	0	634	
0	0	0	0	0	642	
1	0	0	0	0	647	
2	0	0	0	0	635	
3	0	0	0	0	627	
4	0	0	0	0	632	
5	0	0	0	0	643	
6	0	0	0	0	649	
7	0	0	0	0	655	
8	0	0	0	0	675	
9	0	0	0	0	683	
10	0	0	0	0	671	
11	0	0	0	0	657	
12	0	0	0	0	646	
13	0	0	0	0	636	
14	0	0	0	0	618	
15	0	0	0	0	606	
0	0	0	0	0	617	
1	0	0	0	0	633	
2	0	0	0	0	634	
3	0	0	0	0	639	
4	0	0	0	0	652	
5	0	0	0	0	656	
6	0	0	0	0	643	
7	0	0	0	0	627	
8	0	0	0	0	619	
9	0	0	0	0	609	
10	0	0	0	0	593	
11	0	0	0	0	583	
12	0	0	0	0	583	
13	0	0	0	0	584	
14	0	0	0	0	589	
15	0	0	0	0	595	
0	0	0	0	0	611	
1	0	0	0	0	624	
2	0	0	0	0	618	
3	0	0	0	0	599	
4	0	0	0	0	589	
5	0	0	0	0	580	
6	0	0	0	0	568	
7	0	0	0	0	562	
8	0	0	0	0	568	
9	0	0	0	0	573	
10	0	0	0	0	573	
11	0	0	0	0	573	
12	0	0	0	0	578	
13	0	0	0	0	581	
14	0	0	0	0	572	
15	0	0	0	0	563	
0	0	0	0	0	566	
1	0	0	0	0	567	
2	0	0	0	0	556	
3	0	0	0	0	545	
4	0	0	0	0	546	
5	0	0	0	0	547	
6	0	0	0	0	560	
7	0	0	0	0	560	
8	0	0	0	0	572	
9	0	0	0	0	590	
10	0	0	0	0	595	
11	0	0	0	0	599	
12	0	0	0	0	590	
13	0	0	0	0	585	
14	0	0	0	0	569	
15	0	0	0	0	559	
0	0	0	0	0	569	
1	0	0	0	0	575	
2	0	0	0	0	593	
3	0	0	0	0	600	
4	0	0	0	0	615	
5	0	0	0	0	628	
6	0	0	0	0	627	
7	0	0	0	0	625	
8	0	0	0	0	621	
9	0	0	0	0	621	
10	0	0	0	0	613	
11	0	0	0	0	620	
12	0	0	0	0	632	
13	0	0	0	0	650	
14	0	0	0	0	647	
15	0	0	0	0	633	
0	0	0	0	0	643	
1	0	0	0	0	652	
2	0	0	0	0	647	
3	0	0	0	0	644	
4	0	0	0	0	656	
5	0	0	0	0	669	
6	0	0	0	0	665	
7	0	0	0	0	651	
8	0	0	0	0	645	
9	0	0	0	0	640	
10	0	0	0	0	627	
11	0	0	0	0	624	
12	0	0	0	0	640	
13	0	0	0	0	658	
14	0	0	0	0	659	
15	0	0	0	0	649	
0	0	0	0	0	647	
1	0	0	0	0	646	
2	0	0	0	0	638	
3	0	0	0	0	624	
4	0	0	0	0	625	
5	0	0	0	0	632	
6	0	0	0	0	622	
7	0	0	0	0	625	
8	0	0	0	0	628	
9	0	0	0	0	632	
10	0	0	0	0	626	
11	0	0	0	0	624	
12	0	0	0	0	630	
13	0	0	0	0	632	
14	0	0	0	0	627	
15	0	0	0	0	613	
0	0	0	0	0	619	
1	0	0	0	0	623	
2	0	0	0	0	617	
3	0	0	0	0	615	
4	0	0	0	0	618	
5	0	0	0	0	620	
6	0	0	0	0	614	
7	0	0	0	0	604	
8	0	0	0	0	608	
9	0	0	0	0	613	
10	0	0	0	0	607	
11	0	0	0	0	599	
12	0	0	0	0	599	
13	0	0	0	0	604	
14	0	0	0	0	598	
15	0	0	0	0	592	
0	0	0	0	0	600	
1	0	0	0	0	605	
2	0	0	0	0	599	
3	0	0	0	0	592	
4	0	0	0	0	598	
5	0	0	0	0	607	
6	0	0	0	0	605	
7	0	0	0	0	601	
8	0	0	0	0	604	
9	0	0	0	0	609	
10	0	0	0	0	604	
11	0	0	0	0	600	
12	0	0	0	0	609	
13	0	0	0	0	619	
14	0	0	0	0	614	
15	0	0	0	0	612	
0	0	0	0	0	620	
1	0	0	0	0	628	
2	0	0	0	0	624	
3	0	0	0	0	617	
4	0	0	0	0	622	
5	0	0	0	0	628	
6	0	0	0	0	628	
7	0	0	0	0	628	
8	0	0	0	0	637	
9	0	0	0	0	649	
10	0	0	0	0	649	
11	0	0	0	0	649	
12	0	0	0	0	654	
13	0	0	0	0	659	
14	0	0	0	0	654	
15	0	0	0	0	639	
0	0	0	0	0	639	
1	0	0	0	0	642	
2	0	0	0	0	643	
3	0	0	0	0	645	
4	0	0	0	0	655	
5	0	0	0	0	658	
6	0	0	0	0	651	
7	0	0	0	0	644	
8	0	0	0	0	645	
9	0	0	0	0	649	
10	0	0	0	0	642	
11	0	0	0	0	630	
12	0	0	0	0	628	
13	0	0	0	0	622	
14	0	0	0	0	618	
15	0	0	0	0	616	
0	0	0	0	0	628	
1	0	0	0	0	638	
2	0	0	0	0	632	
3	0	0	0	0	625	
4	0	0	0	0	627	
5	0	0	0	0	624	
6	0	0	0	0	614	
7	0	0	0	0	605	
8	0	0	0	0	602	
9	0	0	0	0	603	
10	0	0	0	0	599	
11	0	0	0	0	594	
12	0	0	0	0	602	
13	0	0	0	0	611	
14	0	0	0	0	606	
15	0	0	0	0	602	
0	0	0	0	0	607	
1	0	0	0	0	607	
2	0	0	0	0	592	
3	0	0	0	0	577	
4	0	0	0	0	580	
5	0	0	0	0	595	
6	0	0	0	0	605	
7	0	0	0	0	608	
8	0	0	0	0	609	
9	0	0	0	0	602	
10	0	0	0	0	587	
11	0	0	0	0	572	
12	0	0	0	0	571	
13	0	0	0	0	578	
14	0	0	0	0	579	
15	0	0	0	0	580	
0	0	0	0	0	588	
1	0	0	0	0	596	
2	0	0	0	0	590	
3	0	0	0	0	577	
4	0	0	0	0	573	
5	0	0	0	0	566	
6	0	0	0	0	557	
7	0	0	0	0	555	
8	0	0	0	0	568	
9	0	0	0	0	577	
10	0	0	0	0	575	
11	0	0	0	0	576	
12	0	0	0	0	588	
13	0	0	0	0	592	
14	0	0	0	0	586	
15	0	0	0	0	578	
0	0	0	0	0	579	
1	0	0	0	0	584	
2	0	0	0	0	581	
3	0	0	0	0	574	
4	0	0	0	0	583	
5	0	0	0	0	594	
6	0	0	0	0	600	
7	0	0	0	0	602	
8	0	0	0	0	604	
9	0	0	0	0	603	
10	0	0	0	0	593	
11	0	0	0	0	583	
12	0	0	0	0	592	
13	0	0	0	0	601	
14	0	0	0	0	612	
15	0	0	0	0	610	
0	0	0	0	0	621	
1	0	0	0	0	629	
2	0	0	0	0	628	
3	0	0	0	0	623	
4	0	0	0	0	634	
5	0	0	0	0	653	
6	0	0	0	0	649	
7	0	0	0	0	643	
8	0	0	0	0	642	
9	0	0	0	0	647	
10	0	0	0	0	643	
11	0	0	0	0	642	
12	0	0	0	0	644	
13	0	0	0	0	645	
14	0	0	0	0	644	
15	0	0	0	0	639	
0	0	0	0	0	643	
1	0	0	0	0	655	
2	0	0	0	0	663	
3	0	0	0	0	666	
4	0	0	0	0	677	
5	0	0	0	0	672	
6	0	0	0	0	657	
7	0	0	0	0	640	
8	0	0	0	0	633	
9	0	0	0	0	632	
10	0	0	0	0	623	
11	0	0	0	0	618	
12	0	0	0	0	624	
13	0	0	0	0	630	
14	0	0	0	0	628	
15	0	0	0	0	635	
0	0	0	0	0	650	
1	0	0	0	0	656	
2	0	0	0	0	651	
3	0	0	0	0	633	
4	0	0	0	0	624	
5	0	0	0	0	615	
6	0	0	0	0	602	
7	0	0	0	0	599	
8	0	0	0	0	611	
9	0	0	0	0	622	
10	0	0	0	0	617	
11	0	0	0	0	609	
12	0	0	0	0	615	
13	0	0	0	0	620	
14	0	0	0	0	614	
15	0	0	0	0	607	
0	0	0	0	0	612	
1	0	0	0	0	620	
2	0	0	0	0	625	
3	0	0	0	0	622	
4	0	0	0	0	636	
5	0	0	0	0	646	
6	0	0	0	0	648	
7	0	0	0	0	652	
8	0	0	0	0	659	
9	0	0	0	0	660	
10	0	0	0	0	647	
11	0	0	0	0	636	
12	0	0	0	0	638	
13	0	0	0	0	647	
14	0	0	0	0	648	
15	0	0	0	0	652	
0	0	0	0	0	659	
1	0	0	0	0	658	
2	0	0	0	0	643	
3	0	0	0	0	644	
4	0	0	0	0	653	
5	0	0	0	0	664	
6	0	0	0	0	650	
7	0	0	0	0	647	
8	0	0	0	0	659	
9	0	0	0	0	674	
10	0	0	0	0	663	
11	0	0	0	0	651	
12	0	0	0	0	644	
13	0	0	0	0	632	
14	0	0	0	0	621	
15	0	0	0	0	621	
0	0	0	0	0	627	
1	0	0	0	0	627	
2	0	0	0	0	618	
3	0	0	0	0	607	
4	0	0	0	0	612	
5	0	0	0	0	600	
6	0	0	0	0	584	
7	0	0	0	0	574	
8	0	0	0	0	574	
9	0	0	0	0	579	
10	0	0	0	0	580	
11	0	0	0	0	572	
12	0	0	0	0	582	
13	0	0	0	0	591	
14	0	0	0	0	591	
15	0	0	0	0	595	
0	0	0	0	0	609	
1	0	0	0	0	604	
2	0	0	0	0	607	
3	0	0	0	0	596	
4	0	0	0	0	590	
5	0	0	0	0	593	
6	0	0	0	0	590	
7	0	0	0	0	588	
8	0	0	0	0	608	
9	0	0	0	0	619	
10	0	0	0	0	611	
11	0	0	0	0	618	
12	0	0	0	0	625	
13	0	0	0	0	633	
14	0	0	0	0	630	
15	0	0	0	0	617	
0	0	0	0	0	627	
1	0	0	0	0	630	
2	0	0	0	0	616	
3	0	0	0	0	595	
4	0	0	0	0	587	
5	0	0	0	0	601	
6	0	0	0	0	612	
7	0	0	0	0	606	
8	0	0	0	0	603	
9	0	0	0	0	613	
10	0	0	0	0	624	
11	0	0	0	0	627	
12	0	0	0	0	618	
13	0	0	0	0	627	
14	0	0	0	0	662	
15	0	0	0	0	572	
0	0	0	0	0	571	
1	0	0	0	0	600	
2	0	0	0	0	653	
3	0	0	0	0	639	
4	0	0	0	0	615	
5	0	0	0	0	595	
6	0	0	0	0	634	
7	0	0	0	0	605	
8	0	0	0	0	594	
9	0	0	0	0	611	
10	0	0	0	0	630	
11	0	0	0	0	628	
12	0	0	0	0	633	
13	0	0	0	0	613	
14	0	0	0	0	601	
15	0	0	0	0	600	
0	0	0	0	0	608	
1	0	0	0	0	616	
2	0	0	0	0	615	
3	0	0	0	0	612	
4	0	0	0	0	598	
5	0	0	0	0	625	
6	0	0	0	0	625	
7	0	0	0	0	615	
8	0	0	0	0	628	
9	0	0	0	0	628	
10	0	0	0	0	594	
11	0	0	0	0	555	
12	0	0	0	0	626	
13	0	0	0	0	504	
14	0	0	0	0	646	
15	0	0	0	0	658	
0	0	0	0	0	645	
1	0	0	0	0	644	
2	0	0	0	0	573	
3	0	0	0	0	533	
4	0	0	0	0	572	
5	0	0	0	0	613	
6	0	0	0	0	604	
7	0	0	0	0	637	
8	0	0	0	0	546	
9	0	0	0	0	542	
10	0	0	0	0	532	
11	0	0	0	0	664	
12	0	0	0	0	665	
13	0	0	0	0	538	
14	0	0	0	0	548	
15	0	0	0	0	658	
0	0	0	0	0	631	
1	0	0	0	0	596	
2	0	0	0	0	626	
3	0	0	0	0	756	
4	0	0	0	0	713	
5	0	0	0	0	667	
6	0	0	0	0	668	
7	0	0	0	0	606	
8	0	0	0	0	591	
9	0	0	0	0	530	
10	0	0	0	0	539	
11	0	0	0	0	534	
12	0	0	0	0	532	
13	0	0	0	0	587	
14	0	0	0	0	587	
15	0	0	0	0	586	
0	0	0	0	0	691	
1	0	0	0	0	703	
2	0	0	0	0	693	
3	0	0	0	0	675	
4	0	0	0	0	685	
5	0	0	0	0	649	
6	0	0	0	0	510	
7	0	0	0	0	569	
8	0	0	0	0	509	
9	0	0	0	0	526	
10	0	0	0	0	502	
11	0	0	0	0	519	
12	0	0	0	0	765	
13	0	0	0	0	670	
14	0	0	0	0	643	
15	0	0	0	0	697	
0	0	0	0	0	648	
1	0	0	0	0	608	
2	0	0	0	0	581	
3	0	0	0	0	547	
4	0	0	0	0	559	
5	0	0	0	0	576	
6	0	0	0	0	578	
7	0	0	0	0	575	
8	0	0	0	0	575	
9	0	0	0	0	569	
10	0	0	0	0	592	
11	0	0	0	0	604	
12	0	0	0	0	625	
13	0	0	0	0	612	
14	0	0	0	0	599	
15	0	0	0	0	608	
0	0	0	0	0	602	
1	0	0	0	0	574	
2	0	0	0	0	579	
3	0	0	0	0	604	
4	0	0	0	0	671	
5	0	0	0	0	643	
6	0	0	0	0	564	
7	0	0	0	0	582	
8	0	0	0	0	549	
9	0	0	0	0	601	
10	0	0	0	0	633	
11	0	0	0	0	613	
12	0	0	0	0	600	
13	0	0	0	0	595	
14	0	0	0	0	580	
15	0	0	0	0	585	
0	0	0	0	0	600	
1	0	0	0	0	626	
2	0	0	0	0	635	
3	0	0	0	0	603	
4	0	0	0	0	497	
5	0	0	0	0	553	
6	0	0	0	0	519	
7	0	0	0	0	525	
8	0	0	0	0	706	
9	0	0	0	0	661	
10	0	0	0	0	623	
11	0	0	0	0	582	
12	0	0	0	0	603	
13	0	0	0	0	603	
14	0	0	0	0	619	
15	0	0	0	0	585	
0	0	0	0	0	511	
1	0	0	0	0	635	
2	0	0	0	0	679	
3	0	0	0	0	705	
4	0	0	0	0	588	
5	0	0	0	0	574	
6	0	0	0	0	538	
7	0	0	0	0	553	
8	0	0	0	0	594	
9	0	0	0	0	661	
10	0	0	0	0	637	
11	0	0	0	0	615	
12	0	0	0	0	608	
13	0	0	0	0	614	
14	0	0	0	0	609	
15	0	0	0	0	606	
0	0	0	0	0	600	
1	0	0	0	0	657	
2	0	0	0	0	659	
3	0	0	0	0	622	
4	0	0	0	0	600	
5	0	0	0	0	600	
6	0	0	0	0	596	
7	0	0	0	0	604	
8	0	0	0	0	576	
9	0	0	0	0	577	
10	0	0	0	0	598	
11	0	0	0	0	683	
12	0	0	0	0	616	
13	0	0	0	0	649	
14	0	0	0	0	580	
15	0	0	0	0	604	
0	0	0	0	0	610	
1	0	0	0	0	615	
2	0	0	0	0	614	
3	0	0	0	0	617	
4	0	0	0	0	625	
5	0	0	0	0	660	
6	0	0	0	0	608	
7	0	0	0	0	575	
8	0	0	0	0	593	
9	0	0	0	0	614	
10	0	0	0	0	621	
11	0	0	0	0	622	
12	0	0	0	0	616	
13	0	0	0	0	601	
14	0	0	0	0	590	
15	0	0	0	0	607	
0	0	0	0	0	635	
1	0	0	0	0	639	
2	0	0	0	0	634	
3	0	0	0	0	619	
4	0	0	0	0	611	
5	0	0	0	0	605	
6	0	0	0	0	600	
7	0	0	0	0	597	
8	0	0	0	0	610	
9	0	0	0	0	619	
10	0	0	0	0	617	
11	0	0	0	0	615	
12	0	0	0	0	617	
13	0	0	0	0	614	
14	0	0	0	0	606	
15	0	0	0	0	607	
0	0	0	0	0	619	
1	0	0	0	0	623	
2	0	0	0	0	618	
3	0	0	0	0	617	
4	0	0	0	0	615	
5	0	0	0	0	620	
6	0	0	0	0	608	
7	0	0	0	0	596	
8	0	0	0	0	607	
9	0	0	0	0	619	
10	0	0	0	0	615	
11	0	0	0	0	615	
12	0	0	0	0	619	
13	0	0	0	0	618	
14	0	0	0	0	608	
15	0	0	0	0	593	
0	0	0	0	0	600	
1	0	0	0	0	608	
2	0	0	0	0	604	
3	0	0	0	0	609	
4	0	0	0	0	623	
5	0	0	0	0	628	
6	0	0	0	0	617	
7	0	0	0	0	607	
8	0	0	0	0	612	
9	0	0	0	0	625	
10	0	0	0	0	623	
11	0	0	0	0	608	
12	0	0	0	0	611	
13	0	0	0	0	619	
14	0	0	0	0	615	
15	0	0	0	0	612	
0	0	0	0	0	609	
1	0	0	0	0	596	
2	0	0	0	0	574	
3	0	0	0	0	565	
4	0	0	0	0	585	
5	0	0	0	0	588	
6	0	0	0	0	604	
7	0	0	0	0	618	
8	0	0	0	0	663	
9	0	0	0	0	639	
10	0	0	0	0	696	
11	0	0	0	0	652	
12	0	0	0	0	658	
13	0	0	0	0	611	
14	0	0	0	0	600	
15	0	0	0	0	619	
0	0	0	0	0	630	
1	0	0	0	0	632	
2	0	0	0	0	621	
3	0	0	0	0	598	
4	0	0	0	0	602	
5	0	0	0	0	613	
6	0	0	0	0	616	
7	0	0	0	0	614	
8	0	0	0	0	622	
9	0	0	0	0	611	
10	0	0	0	0	588	
11	0	0	0	0	602	
12	0	0	0	0	624	
13	0	0	0	0	607	
14	0	0	0	0	608	
15	0	0	0	0	588	
0	0	0	0	0	615	
1	0	0	0	0	623	
2	0	0	0	0	615	
3	0	0	0	0	608	
4	0	0	0	0	609	
5	0	0	0	0	612	
6	0	0	0	0	609	
7	0	0	0	0	611	
8	0	0	0	0	609	
9	0	0	0	0	611	
10	0	0	0	0	603	
11	0	0	0	0	608	
12	0	0	0	0	617	
13	0	0	0	0	624	
14	0	0	0	0	614	
15	0	0	0	0	605	
0	0	0	0	0	616	
1	0	0	0	0	617	
2	0	0	0	0	618	
3	0	0	0	0	614	
4	0	0	0	0	628	
5	0	0	0	0	629	
6	0	0	0	0	632	
7	0	0	0	0	632	
8	0	0	0	0	641	
9	0	0	0	0	647	
10	0	0	0	0	635	
11	0	0	0	0	623	
12	0	0	0	0	628	
13	0	0	0	0	632	
14	0	0	0	0	623	
15	0	0	0	0	621	
0	0	0	0	0	622	
1	0	0	0	0	626	
2	0	0	0	0	622	
3	0	0	0	0	612	
4	0	0	0	0	612	
5	0	0	0	0	611	
6	0	0	0	0	607	
7	0	0	0	0	600	
8	0	0	0	0	608	
9	0	0	0	0	608	
10	0	0	0	0	588	
11	0	0	0	0	603	
12	0	0	0	0	588	
13	0	0	0	0	611	
14	0	0	0	0	640	
15	0	0	0	0	607	
0	0	0	0	0	604	
1	0	0	0	0	646	
2	0	0	0	0	608	
3	0	0	0	0	620	
4	0	0	0	0	604	
5	0	0	0	0	604	
6	0	0	0	0	606	
7	0	0	0	0	620	
8	0	0	0	0	663	
9	0	0	0	0	578	
10	0	0	0	0	598	
11	0	0	0	0	621	
12	0	0	0	0	615	
13	0	0	0	0	701	
14	0	0	0	0	574	
15	0	0	0	0	594	
0	0	0	0	0	610	
1	0	0	0	0	601	
2	0	0	0	0	598	
3	0	0	0	0	595	
4	0	0	0	0	601	
5	0	0	0	0	599	
6	0	0	0	0	603	
7	0	0	0	0	603	
8	0	0	0	0	592	
9	0	0	0	0	581	
10	0	0	0	0	588	
11	0	0	0	0	601	
12	0	0	0	0	604	
13	0	0	0	0	576	
14	0	0	0	0	627	
15	0	0	0	0	592	
0	0	0	0	0	580	
1	0	0	0	0	600	
2	0	0	0	0	615	
3	0	0	0	0	649	
4	0	0	0	0	607	
5	0	0	0	0	605	
6	0	0	0	0	623	
7	0	0	0	0	547	
8	0	0	0	0	651	
9	0	0	0	0	612	
10	0	0	0	0	621	
11	0	0	0	0	607	
12	0	0	0	0	629	
13	0	0	0	0	626	
14	0	0	0	0	604	
15	0	0	0	0	550	
0	0	0	0	0	759	
1	0	0	0	0	857	
2	0	0	0	0	694	
3	0	0	0	0	488	
4	0	0	0	0	691	
5	0	0	0	0	577	
6	0	0	0	0	463	
7	0	0	0	0	554	
8	0	0	0	0	582	
9	0	0	0	0	580	
10	0	0	0	0	614	
11	0	0	0	0	589	
12	0	0	0	0	680	
13	0	0	0	0	585	
14	0	0	0	0	651	
15	0	0	0	0	617	
0	0	0	0	0	664	
1	0	0	0	0	659	
2	0	0	0	0	670	
3	0	0	0	0	654	
4	0	0	0	0	500	
5	0	0	0	0	622	
6	0	0	0	0	571	
7	0	0	0	0	556	
8	0	0	0	0	559	
9	0	0	0	0	568	
10	0	0	0	0	574	
11	0	0	0	0	573	
12	0	0	0	0	582	
13	0	0	0	0	603	
14	0	0	0	0	631	
15	0	0	0	0	607	
0	0	0	0	0	601	
1	0	0	0	0	604	
2	0	0	0	0	543	
3	0	0	0	0	487	
4	0	0	0	0	469	
5	0	0	0	0	471	
6	0	0	0	0	492	
7	0	0	0	0	615	
8	0	0	0	0	750	
9	0	0	0	0	779	
10	0	0	0	0	602	
11	0	0	0	0	537	
12	0	0	0	0	579	
13	0	0	0	0	612	
14	0	0	0	0	605	
15	0	0	0	0	575	
0	0	0	0	0	585	
1	0	0	0	0	606	
2	0	0	0	0	586	
3	0	0	0	0	554	
4	0	0	0	0	546	
5	0	0	0	0	579	
6	0	0	0	0	594	
7	0	0	0	0	664	
8	0	0	0	0	755	
9	0	0	0	0	679	
10	0	0	0	0	659	
11	0	0	0	0	642	
12	0	0	0	0	658	
13	0	0	0	0	651	
14	0	0	0	0	630	
15	0	0	0	0	646	
0	0	0	0	0	634	
1	0	0	0	0	639	
2	0	0	0	0	641	
3	0	0	0	0	644	
4	0	0	0	0	663	
5	0	0	0	0	673	
6	0	0	0	0	670	
7	0	0	0	0	667	
8	0	0	0	0	686	
9	0	0	0	0	682	
10	0	0	0	0	661	
11	0	0	0	0	608	
12	0	0	0	0	628	
13	0	0	0	0	631	
14	0	0	0	0	635	
15	0	0	0	0	636	
0	0	0	0	0	660	
1	0	0	0	0	659	
2	0	0	0	0	654	
3	0	0	0	0	640	
4	0	0	0	0	645	
5	0	0	0	0	665	
6	0	0	0	0	661	
7	0	0	0	0	634	
8	0	0	0	0	628	
9	0	0	0	0	625	
10	0	0	0	0	611	
11	0	0	0	0	613	
12	0	0	0	0	611	
13	0	0	0	0	606	
14	0	0	0	0	606	
15	0	0	0	0	612	
0	0	0	0	0	631	
1	0	0	0	0	630	
2	0	0	0	0	610	
3	0	0	0	0	599	
4	0	0	0	0	606	
5	0	0	0	0	604	
6	0	0	0	0	600	
7	0	0	0	0	595	
8	0	0	0	0	595	
9	0	0	0	0	598	
10	0	0	0	0	602	
11	0	0	0	0	626	
12	0	0	0	0	645	
13	0	0	0	0	658	
14	0	0	0	0	649	
15	0	0	0	0	634	
0	0	0	0	0	635	
1	0	0	0	0	624	
2	0	0	0	0	617	
3	0	0	0	0	623	
4	0	0	0	0	648	
5	0	0	0	0	655	
6	0	0	0	0	666	
7	0	0	0	0	629	
8	0	0	0	0	625	
9	0	0	0	0	622	
10	0	0	0	0	621	
11	0	0	0	0	619	
12	0	0	0	0	650	
13	0	0	0	0	675	
14	0	0	0	0	686	
15	0	0	0	0	649	
0	0	0	0	0	631	
1	0	0	0	0	636	
2	0	0	0	0	615	
3	0	0	0	0	623	
4	0	0	0	0	643	
5	0	0	0	0	666	
6	0	0	0	0	631	
7	0	0	0	0	633	
8	0	0	0	0	621	
9	0	0	0	0	618	
10	0	0	0	0	607	
11	0	0	0	0	594	
12	0	0	0	0	610	
13	0	0	0	0	615	
14	0	0	0	0	604	
15	0	0	0	0	590	
0	0	0	0	0	606	
1	0	0	0	0	601	
2	0	0	0	0	606	
3	0	0	0	0	619	
4	0	0	0	0	623	
5	0	0	0	0	627	
6	0	0	0	0	610	
7	0	0	0	0	590	
8	0	0	0	0	558	
9	0	0	0	0	578	
10	0	0	0	0	583	
11	0	0	0	0	600	
12	0	0	0	0	612	
13	0	0	0	0	616	
14	0	0	0	0	604	
15	0	0	0	0	592	
0	0	0	0	0	583	
1	0	0	0	0	572	
2	0	0	0	0	572	
3	0	0	0	0	573	
4	0	0	0	0	596	
5	0	0	0	0	598	
6	0	0	0	0	616	
7	0	0	0	0	627	
8	0	0	0	0	636	
9	0	0	0	0	619	
10	0	0	0	0	596	
11	0	0	0	0	560	
12	0	0	0	0	563	
13	0	0	0	0	591	
14	0	0	0	0	589	
15	0	0	0	0	586	
0	0	0	0	0	593	
1	0	0	0	0	604	
2	0	0	0	0	603	
3	0	0	0	0	611	
4	0	0	0	0	632	
5	0	0	0	0	632	
6	0	0	0	0	616	
7	0	0	0	0	457	
8	0	0	0	0	594	
9	0	0	0	0	612	
10	0	0	0	0	587	
11	0	0	0	0	603	
12	0	0	0	0	557	
13	0	0	0	0	595	
14	0	0	0	0	577	
15	0	0	0	0	594	
0	0	0	0	0	661	
1	0	0	0	0	663	
2	0	0	0	0	651	
3	0	0	0	0	629	
4	0	0	0	0	619	
5	0	0	0	0	626	
6	0	0	0	0	581	
7	0	0	0	0	574	
8	0	0	0	0	563	
9	0	0	0	0	523	
10	0	0	0	0	629	
11	0	0	0	0	602	
12	0	0	0	0	621	
13	0	0	0	0	703	
14	0	0	0	0	617	
15	0	0	0	0	674	
0	0	0	0	0	664	
1	0	0	0	0	653	
2	0	0	0	0	636	
3	0	0	0	0	622	
4	0	0	0	0	624	
5	0	0	0	0	651	
6	0	0	0	0	626	
7	0	0	0	0	616	
8	0	0	0	0	675	
9	0	0	0	0	679	
10	0	0	0	0	670	
11	0	0	0	0	662	
12	0	0	0	0	619	
13	0	0	0	0	572	
14	0	0	0	0	556	
15	0	0	0	0	583	
0	0	0	0	0	647	
1	0	0	0	0	649	
2	0	0	0	0	608	
3	0	0	0	0	600	
4	0	0	0	0	602	
5	0	0	0	0	621	
6	0	0	0	0	627	
7	0	0	0	0	611	
8	0	0	0	0	601	
9	0	0	0	0	607	
10	0	0	0	0	595	
11	0	0	0	0	591	
12	0	0	0	0	600	
13	0	0	0	0	617	
14	0	0	0	0	621	
15	0	0	0	0	615	
0	0	0	0	0	614	
1	0	0	0	0	601	
2	0	0	0	0	589	
3	0	0	0	0	589	
4	0	0	0	0	612	
5	0	0	0	0	628	
6	0	0	0	0	630	
7	0	0	0	0	633	
8	0	0	0	0	625	
9	0	0	0	0	647	
10	0	0	0	0	625	
11	0	0	0	0	624	
12	0	0	0	0	614	
13	0	0	0	0	626	
14	0	0	0	0	625	
15	0	0	0	0	618	
0	0	0	0	0	615	
1	0	0	0	0	608	
2	0	0	0	0	608	
3	0	0	0	0	624	
4	0	0	0	0	627	
5	0	0	0	0	632	
6	0	0	0	0	626	
7	0	0	0	0	608	
8	0	0	0	0	637	
9	0	0	0	0	656	
10	0	0	0	0	604	
11	0	0	0	0	664	
12	0	0	0	0	630	
13	0	0	0	0	630	
14	0	0	0	0	633	
15	0	0	0	0	622	
0	0	0	0	0	618	
1	0	0	0	0	609	
2	0	0	0	0	617	
3	0	0	0	0	615	
4	0	0	0	0	675	
5	0	0	0	0	670	
6	0	0	0	0	642	
7	0	0	0	0	617	
8	0	0	0	0	627	
9	0	0	0	0	628	
10	0	0	0	0	621	
11	0	0	0	0	615	
12	0	0	0	0	625	
13	0	0	0	0	627	
14	0	0	0	0	626	
15	0	0	0	0	619	
0	0	0	0	0	639	
1	0	0	0	0	625	
2	0	0	0	0	620	
3	0	0	0	0	607	
4	0	0	0	0	608	
5	0	0	0	0	611	
6	0	0	0	0	605	
7	0	0	0	0	606	
8	0	0	0	0	618	
9	0	0	0	0	625	
10	0	0	0	0	609	
11	0	0	0	0	591	
12	0	0	0	0	570	
13	0	0	0	0	608	
14	0	0	0	0	594	
15	0	0	0	0	590	
0	0	0	0	0	609	
1	0	0	0	0	625	
2	0	0	0	0	621	
3	0	0	0	0	604	
4	0	0	0	0	592	
5	0	0	0	0	583	
6	0	0	0	0	572	
7	0	0	0	0	564	
8	0	0	0	0	575	
9	0	0	0	0	594	
10	0	0	0	0	599	
11	0	0	0	0	598	
12	0	0	0	0	598	
13	0	0	0	0	596	
14	0	0	0	0	593	
15	0	0	0	0	587	
0	0	0	0	0	588	
1	0	0	0	0	584	
2	0	0	0	0	584	
3	0	0	0	0	580	
4	0	0	0	0	591	
5	0	0	0	0	600	
6	0	0	0	0	594	
7	0	0	0	0	587	
8	0	0	0	0	589	
9	0	0	0	0	595	
10	0	0	0	0	591	
11	0	0	0	0	588	
12	0	0	0	0	596	
13	0	0	0	0	608	
14	0	0	0	0	608	
15	0	0	0	0	604	
0	0	0	0	0	608	
1	0	0	0	0	612	
2	0	0	0	0	609	
3	0	0	0	0	601	
4	0	0	0	0	608	
5	0	0	0	0	613	
6	0	0	0	0	612	
7	0	0	0	0	607	
8	0	0	0	0	613	
9	0	0	0	0	617	
10	0	0	0	0	611	
11	0	0	0	0	611	
12	0	0	0	0	624	
13	0	0	0	0	631	
14	0	0	0	0	624	
15	0	0	0	0	615	
0	0	0	0	0	621	
1	0	0	0	0	631	
2	0	0	0	0	625	
3	0	0	0	0	617	
4	0	0	0	0	620	
5	0	0	0	0	624	
6	0	0	0	0	622	
7	0	0	0	0	615	
8	0	0	0	0	621	
9	0	0	0	0	627	
10	0	0	0	0	624	
11	0	0	0	0	619	
12	0	0	0	0	629	
13	0	0	0	0	639	
14	0	0	0	0	634	
15	0	0	0	0	626	
0	0	0	0	0	629	
1	0	0	0	0	630	
2	0	0	0	0	620	
3	0	0	0	0	611	
4	0	0	0	0	614	
5	0	0	0	0	622	
6	0	0	0	0	618	
7	0	0	0	0	619	
8	0	0	0	0	630	
9	0	0	0	0	633	
10	0	0	0	0	628	
11	0	0	0	0	620	
12	0	0	0	0	621	
13	0	0	0	0	621	
14	0	0	0	0	614	
15	0	0	0	0	606	
0	0	0	0	0	615	
1	0	0	0	0	625	
2	0	0	0	0	624	
3	0	0	0	0	618	
4	0	0	0	0	620	
5	0	0	0	0	622	
6	0	0	0	0	612	
7	0	0	0	0	604	
8	0	0	0	0	611	
9	0	0	0	0	620	
10	0	0	0	0	624	
11	0	0	0	0	622	
12	0	0	0	0	624	
13	0	0	0	0	624	
14	0	0	0	0	615	
15	0	0	0	0	608	
0	0	0	0	0	613	
1	0	0	0	0	620	
2	0	0	0	0	619	
3	0	0	0	0	615	
4	0	0	0	0	622	
5	0	0	0	0	627	
6	0	0	0	0	619	
7	0	0	0	0	616	
8	0	0	0	0	625	
9	0	0	0	0	628	
10	0	0	0	0	622	
11	0	0	0	0	615	
12	0	0	0	0	615	
13	0	0	0	0	626	
14	0	0	0	0	629	
15	0	0	0	0	626	
0	0	0	0	0	629	
1	0	0	0	0	632	
2	0	0	0	0	627	
3	0	0	0	0	623	
4	0	0	0	0	629	
5	0	0	0	0	630	
6	0	0	0	0	623	
7	0	0	0	0	617	
8	0	0	0	0	628	
9	0	0	0	0	636	
10	0	0	0	0	631	
11	0	0	0	0	627	
12	0	0	0	0	632	
13	0	0	0	0	632	
14	0	0	0	0	621	
15	0	0	0	0	615	
0	0	0	0	0	624	
1	0	0	0	0	635	
2	0	0	0	0	639	
3	0	0	0	0	635	
4	0	0	0	0	635	
5	0	0	0	0	633	
6	0	0	0	0	627	
7	0	0	0	0	616	
8	0	0	0	0	618	
9	0	0	0	0	620	
10	0	0	0	0	616	
11	0	0	0	0	613	
12	0	0	0	0	617	
13	0	0	0	0	616	
14	0	0	0	0	614	
15	0	0	0	0	611	
0	0	0	0	0	615	
1	0	0	0	0	617	
2	0	0	0	0	609	
3	0	0	0	0	605	
4	0	0	0	0	612	
5	0	0	0	0	612	
6	0	0	0	0	603	
7	0	0	0	0	588	
8	0	0	0	0	587	
9	0	0	0	0	592	
10	0	0	0	0	589	
11	0	0	0	0	589	
12	0	0	0	0	604	
13	0	0	0	0	609	
14	0	0	0	0	602	
15	0	0	0	0	592	
0	0	0	0	0	591	
1	0	0	0	0	592	
2	0	0	0	0	580	
3	0	0	0	0	570	
4	0	0	0	0	583	
5	0	0	0	0	598	
6	0	0	0	0	603	
7	0	0	0	0	602	
8	0	0	0	0	604	
9	0	0	0	0	602	
10	0	0	0	0	588	
11	0	0	0	0	582	
12	0	0	0	0	591	
13	0	0	0	0	597	
14	0	0	0	0	592	
15	0	0	0	0	587	
0	0	0	0	0	594	
1	0	0	0	0	603	
2	0	0	0	0	602	
3	0	0	0	0	596	
4	0	0	0	0	599	
5	0	0	0	0	602	
6	0	0	0	0	594	
7	0	0	0	0	588	
8	0	0	0	0	595	
9	0	0	0	0	605	
10	0	0	0	0	606	
11	0	0	0	0	609	
12	0	0	0	0	622	
13	0	0	0	0	626	
14	0	0	0	0	620	
15	0	0	0	0	611	
0	0	0	0	0	615	
1	0	0	0	0	617	
2	0	0	0	0	611	
3	0	0	0	0	604	
4	0	0	0	0	615	
5	0	0	0	0	637	
6	0	0	0	0	644	
7	0	0	0	0	640	
8	0	0	0	0	639	
9	0	0	0	0	636	
10	0	0	0	0	628	
11	0	0	0	0	620	
12	0	0	0	0	625	
13	0	0	0	0	636	
14	0	0	0	0	633	
15	0	0	0	0	633	
0	0	0	0	0	638	
1	0	0	0	0	643	
2	0	0	0	0	643	
3	0	0	0	0	636	
4	0	0	0	0	635	
5	0	0	0	0	635	
6	0	0	0	0	631	
7	0	0	0	0	630	
8	0	0	0	0	635	
9	0	0	0	0	639	
10	0	0	0	0	635	
11	0	0	0	0	624	
12	0	0	0	0	624	
13	0	0	0	0	625	
14	0	0	0	0	616	
15	0	0	0	0	615	
0	0	0	0	0	624	
1	0	0	0	0	636	
2	0	0	0	0	631	
3	0	0	0	0	622	
4	0	0	0	0	620	
5	0	0	0	0	619	
6	0	0	0	0	612	
7	0	0	0	0	610	
8	0	0	0	0	618	
9	0	0	0	0	624	
10	0	0	0	0	618	
11	0	0	0	0	612	
12	0	0	0	0	619	
13	0	0	0	0	625	
14	0	0	0	0	620	
15	0	0	0	0	612	
0	0	0	0	0	615	
1	0	0	0	0	618	
2	0	0	0	0	609	
3	0	0	0	0	600	
4	0	0	0	0	600	
5	0	0	0	0	601	
6	0	0	0	0	593	
7	0	0	0	0	588	
8	0	0	0	0	601	
9	0	0	0	0	610	
10	0	0	0	0	607	
11	0	0	0	0	603	
12	0	0	0	0	608	
13	0	0	0	0	614	
14	0	0	0	0	615	
15	0	0	0	0	612	
0	0	0	0	0	615	
1	0	0	0	0	618	
2	0	0	0	0	609	
3	0	0	0	0	604	
4	0	0	0	0	611	
5	0	0	0	0	616	
6	0	0	0	0	612	
7	0	0	0	0	606	
8	0	0	0	0	616	
9	0	0	0	0	629	
10	0	0	0	0	627	
11	0	0	0	0	625	
12	0	0	0	0	628	
13	0	0	0	0	635	
14	0	0	0	0	639	
15	0	0	0	0	643	
0	0	0	0	0	654	
1	0	0	0	0	664	
2	0	0	0	0	652	
3	0	0	0	0	630	
4	0	0	0	0	619	
5	0	0	0	0	609	
6	0	0	0	0	598	
7	0	0	0	0	596	
8	0	0	0	0	606	
9	0	0	0	0	617	
10	0	0	0	0	620	
11	0	0	0	0	627	
12	0	0	0	0	641	
13	0	0	0	0	649	
14	0	0	0	0	643	
15	0	0	0	0	634	
0	0	0	0	0	636	
1	0	0	0	0	637	
2	0	0	0	0	632	
3	0	0	0	0	626	
4	0	0	0	0	636	
5	0	0	0	0	647	
6	0	0	0	0	645	
7	0	0	0	0	640	
8	0	0	0	0	646	
9	0	0	0	0	644	
10	0	0	0	0	630	
11	0	0	0	0	620	
12	0	0	0	0	625	
13	0	0	0	0	633	
14	0	0	0	0	630	
15	0	0	0	0	625	
0	0	0	0	0	629	
1	0	0	0	0	634	
2	0	0	0	0	624	
3	0	0	0	0	611	
4	0	0	0	0	608	
5	0	0	0	0	601	
6	0	0	0	0	594	
7	0	0	0	0	597	
8	0	0	0	0	618	
9	0	0	0	0	633	
10	0	0	0	0	624	
11	0	0	0	0	603	
12	0	0	0	0	591	
13	0	0	0	0	588	
14	0	0	0	0	576	
15	0	0	0	0	573	
0	0	0	0	0	587	
1	0	0	0	0	591	
2	0	0	0	0	582	
3	0	0	0	0	571	
4	0	0	0	0	569	
5	0	0	0	0	572	
6	0	0	0	0	571	
7	0	0	0	0	573	
8	0	0	0	0	587	
9	0	0	0	0	590	
10	0	0	0	0	574	
11	0	0	0	0	560	
12	0	0	0	0	566	
13	0	0	0	0	578	
14	0	0	0	0	576	
15	0	0	0	0	570	
0	0	0	0	0	580	
1	0	0	0	0	586	
2	0	0	0	0	580	
3	0	0	0	0	573	
4	0	0	0	0	583	
5	0	0	0	0	600	
6	0	0	0	0	603	
7	0	0	0	0	598	
8	0	0	0	0	598	
9	0	0	0	0	600	
10	0	0	0	0	590	
11	0	0	0	0	586	
12	0	0	0	0	595	
13	0	0	0	0	603	
14	0	0	0	0	604	
15	0	0	0	0	604	
0	0	0	0	0	615	
1	0	0	0	0	626	
2	0	0	0	0	625	
3	0	0	0	0	615	
4	0	0	0	0	611	
5	0	0	0	0	614	
6	0	0	0	0	614	
7	0	0	0	0	615	
8	0	0	0	0	631	
9	0	0	0	0	653	
10	0	0	0	0	659	
11	0	0	0	0	650	
12	0	0	0	0	646	
13	0	0	0	0	644	
14	0	0	0	0	631	
15	0	0	0	0	616	
0	0	0	0	0	621	
1	0	0	0	0	632	
2	0	0	0	0	640	
3	0	0	0	0	657	
4	0	0	0	0	685	
5	0	0	0	0	698	
6	0	0	0	0	689	
7	0	0	0	0	670	
8	0	0	0	0	662	
9	0	0	0	0	658	
10	0	0	0	0	647	
11	0	0	0	0	638	
12	0	0	0	0	640	
13	0	0	0	0	649	
14	0	0	0	0	650	
15	0	0	0	0	641	
0	0	0	0	0	639	
1	0	0	0	0	642	
2	0	0	0	0	639	
3	0	0	0	0	632	
4	0	0	0	0	629	
5	0	0	0	0	626	
6	0	0	0	0	617	
7	0	0	0	0	612	
8	0	0	0	0	611	
9	0	0	0	0	613	
10	0	0	0	0	611	
11	0	0	0	0	610	
12	0	0	0	0	615	
13	0	0	0	0	615	
14	0	0	0	0	607	
15	0	0	0	0	597	
0	0	0	0	0	601	
1	0	0	0	0	606	
2	0	0	0	0	599	
3	0	0	0	0	591	
4	0	0	0	0	599	
5	0	0	0	0	605	
6	0	0	0	0	603	
7	0	0	0	0	596	
8	0	0	0	0	598	
9	0	0	0	0	594	
10	0	0	0	0	587	
11	0	0	0	0	584	
12	0	0	0	0	593	
13	0	0	0	0	611	
14	0	0	0	0	616	
15	0	0	0	0	614	
0	0	0	0	0	620	
1	0	0	0	0	623	
2	0	0	0	0	616	
3	0	0	0	0	606	
4	0	0	0	0	616	
5	0	0	0	0	634	
6	0	0	0	0	636	
7	0	0	0	0	638	
8	0	0	0	0	652	
9	0	0	0	0	670	
10	0	0	0	0	671	
11	0	0	0	0	655	
12	0	0	0	0	643	
13	0	0	0	0	642	
14	0	0	0	0	630	
15	0	0	0	0	628	
0	0	0	0	0	639	
1	0	0	0	0	650	
2	0	0	0	0	655	
3	0	0	0	0	656	
4	0	0	0	0	668	
5	0	0	0	0	675	
6	0	0	0	0	669	
7	0	0	0	0	656	
8	0	0	0	0	655	
9	0	0	0	0	659	
10	0	0	0	0	656	
11	0	0	0	0	656	
12	0	0	0	0	661	
13	0	0	0	0	659	
14	0	0	0	0	655	
15	0	0	0	0	654	
0	0	0	0	0	656	
1	0	0	0	0	655	
2	0	0	0	0	638	
3	0	0	0	0	619	
4	0	0	0	0	615	
5	0	0	0	0	612	
6	0	0	0	0	609	
7	0	0	0	0	607	
8	0	0	0	0	616	
9	0	0	0	0	628	
10	0	0	0	0	626	
11	0	0	0	0	622	
12	0	0	0	0	620	
13	0	0	0	0	616	
14	0	0	0	0	603	
15	0	0	0	0	592	
0	0	0	0	0	594	
1	0	0	0	0	590	
2	0	0	0	0	578	
3	0	0	0	0	560	
4	0	0	0	0	567	
5	0	0	0	0	569	
6	0	0	0	0	573	
7	0	0	0	0	575	
8	0	0	0	0	585	
9	0	0	0	0	585	
10	0	0	0	0	576	
11	0	0	0	0	569	
12	0	0	0	0	560	
13	0	0	0	0	554	
14	0	0	0	0	548	
15	0	0	0	0	539	
0	0	0	0	0	543	
1	0	0	0	0	559	
2	0	0	0	0	565	
3	0	0	0	0	562	
4	0	0	0	0	572	
5	0	0	0	0	582	
6	0	0	0	0	589	
7	0	0	0	0	580	
8	0	0	0	0	583	
9	0	0	0	0	589	
10	0	0	0	0	583	
11	0	0	0	0	572	
12	0	0	0	0	575	
13	0	0	0	0	593	
14	0	0	0	0	598	
15	0	0	0	0	597	
0	0	0	0	0	611	
1	0	0	0	0	618	
2	0	0	0	0	615	
3	0	0	0	0	609	
4	0	0	0	0	603	
5	0	0	0	0	604	
6	0	0	0	0	603	
7	0	0	0	0	611	
8	0	0	0	0	634	
9	0	0	0	0	648	
10	0	0	0	0	643	
11	0	0	0	0	636	
12	0	0	0	0	633	
13	0	0	0	0	636	
14	0	0	0	0	637	
15	0	0	0	0	637	
0	0	0	0	0	647	
1	0	0	0	0	664	
2	0	0	0	0	670	
3	0	0	0	0	665	
4	0	0	0	0	674	
5	0	0	0	0	671	
6	0	0	0	0	655	
7	0	0	0	0	646	
8	0	0	0	0	652	
9	0	0	0	0	661	
10	0	0	0	0	664	
11	0	0	0	0	661	
12	0	0	0	0	664	
13	0	0	0	0	661	
14	0	0	0	0	652	
15	0	0	0	0	642	
0	0	0	0	0	643	
1	0	0	0	0	641	
2	0	0	0	0	632	
3	0	0	0	0	628	
4	0	0	0	0	638	
5	0	0	0	0	643	
6	0	0	0	0	636	
7	0	0	0	0	622	
8	0	0	0	0	617	
9	0	0	0	0	613	
10	0	0	0	0	607	
11	0	0	0	0	574	
12	0	0	0	0	616	
13	0	0	0	0	617	
14	0	0	0	0	606	
15	0	0	0	0	599	
0	0	0	0	0	598	
1	0	0	0	0	604	
2	0	0	0	0	601	
3	0	0	0	0	608	
4	0	0	0	0	622	
5	0	0	0	0	623	
6	0	0	0	0	612	
7	0	0	0	0	602	
8	0	0	0	0	605	
9	0	0	0	0	604	
10	0	0	0	0	587	
11	0	0	0	0	577	
12	0	0	0	0	593	
13	0	0	0	0	606	
14	0	0	0	0	602	
15	0	0	0	0	597	
0	0	0	0	0	600	
1	0	0	0	0	605	
2	0	0	0	0	602	
3	0	0	0	0	596	
4	0	0	0	0	596	
5	0	0	0	0	593	
6	0	0	0	0	591	
7	0	0	0	0	591	
8	0	0	0	0	606	
9	0	0	0	0	616	
10	0	0	0	0	609	
11	0	0	0	0	602	
12	0	0	0	0	608	
13	0	0	0	0	613	
14	0	0	0	0	614	
15	0	0	0	0	609	
0	0	0	0	0	613	
1	0	0	0	0	611	
2	0	0	0	0	600	
3	0	0	0	0	585	
4	0	0	0	0	589	
5	0	0	0	0	598	
6	0	0	0	0	606	
7	0	0	0	0	616	
8	0	0	0	0	628	
9	0	0	0	0	623	
10	0	0	0	0	607	
11	0	0	0	0	583	
12	0	0	0	0	580	
13	0	0	0	0	575	
14	0	0	0	0	569	
15	0	0	0	0	577	
0	0	0	0	0	596	
1	0	0	0	0	609	
2	0	0	0	0	607	
3	0	0	0	0	603	
4	0	0	0	0	610	
5	0	0	0	0	625	
6	0	0	0	0	619	
7	0	0	0	0	608	
8	0	0	0	0	609	
9	0	0	0	0	611	
10	0	0	0	0	603	
11	0	0	0	0	596	
12	0	0	0	0	615	
13	0	0	0	0	617	
14	0	0	0	0	604	
15	0	0	0	0	588	
0	0	0	0	0	581	
1	0	0	0	0	581	
2	0	0	0	0	583	
3	0	0	0	0	597	
4	0	0	0	0	614	
5	0	0	0	0	615	
6	0	0	0	0	613	
7	0	0	0	0	614	
8	0	0	0	0	627	
9	0	0	0	0	637	
10	0	0	0	0	620	
11	0	0	0	0	608	
12	0	0	0	0	601	
13	0	0	0	0	608	
14	0	0	0	0	613	
15	0	0	0	0	603	
0	0	0	0	0	608	
1	0	0	0	0	615	
2	0	0	0	0	620	
3	0	0	0	0	615	
4	0	0	0	0	614	
5	0	0	0	0	606	
6	0	0	0	0	600	
7	0	0	0	0	611	
8	0	0	0	0	606	
9	0	0	0	0	609	
10	0	0	0	0	610	
11	0	0	0	0	600	
12	0	0	0	0	614	
13	0	0	0	0	630	
14	0	0	0	0	623	
15	0	0	0	0	604	
0	0	0	0	0	614	
1	0	0	0	0	613	
2	0	0	0	0	617	
3	0	0	0	0	600	
4	0	0	0	0	605	
5	0	0	0	0	610	
6	0	0	0	0	605	
7	0	0	0	0	600	
8	0	0	0	0	617	
9	0	0	0	0	646	
10	0	0	0	0	654	
11	0	0	0	0	637	
12	0	0	0	0	611	
13	0	0	0	0	597	
14	0	0	0	0	588	
15	0	0	0	0	586	
0	0	0	0	0	596	
1	0	0	0	0	597	
2	0	0	0	0	600	
3	0	0	0	0	609	
4	0	0	0	0	625	
5	0	0	0	0	647	
6	0	0	0	0	632	
7	0	0	0	0	609	
8	0	0	0	0	604	
9	0	0	0	0	601	
10	0	0	0	0	598	
11	0	0	0	0	601	
12	0	0	0	0	614	
13	0	0	0	0	603	
14	0	0	0	0	587	
15	0	0	0	0	581	
0	0	0	0	0	604	
1	0	0	0	0	608	
2	0	0	0	0	601	
3	0	0	0	0	596	
4	0	0	0	0	616	
5	0	0	0	0	626	
6	0	0	0	0	616	
7	0	0	0	0	615	
8	0	0	0	0	617	
9	0	0	0	0	615	
10	0	0	0	0	606	
11	0	0	0	0	610	
12	0	0	0	0	627	
13	0	0	0	0	628	
14	0	0	0	0	617	
15	0	0	0	0	617	
0	0	0	0	0	628	
1	0	0	0	0	635	
2	0	0	0	0	635	
3	0	0	0	0	636	
4	0	0	0	0	648	
5	0	0	0	0	664	
6	0	0	0	0	664	
7	0	0	0	0	644	
8	0	0	0	0	642	
9	0	0	0	0	649	
10	0	0	0	0	644	
11	0	0	0	0	637	
12	0	0	0	0	640	
13	0	0	0	0	638	
14	0	0	0	0	632	
15	0	0	0	0	632	
0	0	0	0	0	638	
1	0	0	0	0	635	
2	0	0	0	0	627	
3	0	0	0	0	624	
4	0	0	0	0	623	
5	0	0	0	0	629	
6	0	0	0	0	625	
7	0	0	0	0	608	
8	0	0	0	0	617	
9	0	0	0	0	630	
10	0	0	0	0	622	
11	0	0	0	0	610	
12	0	0	0	0	604	
13	0	0	0	0	601	
14	0	0	0	0	593	
15	0	0	0	0	579	
0	0	0	0	0	600	
1	0	0	0	0	624	
2	0	0	0	0	610	
3	0	0	0	0	607	
4	0	0	0	0	613	
5	0	0	0	0	611	
6	0	0	0	0	589	
7	0	0	0	0	566	
8	0	0	0	0	573	
9	0	0	0	0	575	
10	0	0	0	0	575	
11	0	0	0	0	583	
12	0	0	0	0	586	
13	0	0	0	0	587	
14	0	0	0	0	574	
15	0	0	0	0	556	
0	0	0	0	0	561	
1	0	0	0	0	568	
2	0	0	0	0	569	
3	0	0	0	0	571	
4	0	0	0	0	611	
5	0	0	0	0	633	
6	0	0	0	0	612	
7	0	0	0	0	582	
8	0	0	0	0	581	
9	0	0	0	0	593	
10	0	0	0	0	590	
11	0	0	0	0	577	
12	0	0	0	0	582	
13	0	0	0	0	591	
14	0	0	0	0	591	
15	0	0	0	0	580	
0	0	0	0	0	609	
1	0	0	0	0	627	
2	0	0	0	0	599	
3	0	0	0	0	571	
4	0	0	0	0	584	
5	0	0	0	0	602	
6	0	0	0	0	589	
7	0	0	0	0	572	
8	0	0	0	0	583	
9	0	0	0	0	635	
10	0	0	0	0	628	
11	0	0	0	0	577	
12	0	0	0	0	575	
13	0	0	0	0	598	
14	0	0	0	0	607	
15	0	0	0	0	598	
0	0	0	0	0	584	
1	0	0	0	0	578	
2	0	0	0	0	583	
3	0	0	0	0	598	
4	0	0	0	0	609	
5	0	0	0	0	611	
6	0	0	0	0	592	
7	0	0	0	0	583	
8	0	0	0	0	593	
9	0	0	0	0	596	
10	0	0	0	0	580	
11	0	0	0	0	577	
12	0	0	0	0	592	
13	0	0	0	0	582	
14	0	0	0	0	549	
15	0	0	0	0	530	
0	0	0	0	0	541	
1	0	0	0	0	543	
2	0	0	0	0	530	
3	0	0	0	0	525	
4	0	0	0	0	542	
5	0	0	0	0	569	
6	0	0	0	0	570	
7	0	0	0	0	562	
8	0	0	0	0	555	
9	0	0	0	0	558	
10	0	0	0	0	556	
11	0	0	0	0	556	
12	0	0	0	0	565	
13	0	0	0	0	568	
14	0	0	0	0	560	
15	0	0	0	0	555	
0	0	0	0	0	566	
1	0	0	0	0	569	
2	0	0	0	0	564	
3	0	0	0	0	551	
4	0	0	0	0	550	
5	0	0	0	0	557	
6	0	0	0	0	555	
7	0	0	0	0	554	
8	0	0	0	0	563	
9	0	0	0	0	571	
10	0	0	0	0	564	
11	0	0	0	0	548	
12	0	0	0	0	552	
13	0	0	0	0	557	
14	0	0	0	0	547	
15	0	0	0	0	538	
0	0	0	0	0	543	
1	0	0	0	0	549	
2	0	0	0	0	556	
3	0	0	0	0	559	
4	0	0	0	0	568	
5	0	0	0	0	568	
6	0	0	0	0	566	
7	0	0	0	0	561	
8	0	0	0	0	556	
9	0	0	0	0	543	
10	0	0	0	0	538	
11	0	0	0	0	515	
12	0	0	0	0	517	
13	0	0	0	0	520	
14	0	0	0	0	523	
15	0	0	0	0	534	
0	0	0	0	0	553	
1	0	0	0	0	560	
2	0	0	0	0	549	
3	0	0	0	0	530	
4	0	0	0	0	508	
5	0	0	0	0	496	
6	0	0	0	0	497	
7	0	0	0	0	518	
8	0	0	0	0	558	
9	0	0	0	0	566	
10	0	0	0	0	560	
11	0	0	0	0	553	
12	0	0	0	0	560	
13	0	0	0	0	583	
14	0	0	0	0	591	
15	0	0	0	0	579	
0	0	0	0	0	566	
1	0	0	0	0	563	
2	0	0	0	0	558	
3	0	0	0	0	560	
4	0	0	0	0	588	
5	0	0	0	0	637	
6	0	0	0	0	657	
7	0	0	0	0	659	
8	0	0	0	0	663	
9	0	0	0	0	682	
10	0	0	0	0	695	
11	0	0	0	0	701	
12	0	0	0	0	681	
13	0	0	0	0	677	
14	0	0	0	0	659	
15	0	0	0	0	647	
0	0	0	0	0	662	
1	0	0	0	0	683	
2	0	0	0	0	701	
3	0	0	0	0	710	
4	0	0	0	0	696	
5	0	0	0	0	679	
6	0	0	0	0	661	
7	0	0	0	0	640	
8	0	0	0	0	659	
9	0	0	0	0	684	
10	0	0	0	0	704	
11	0	0	0	0	727	
12	0	0	0	0	759	
13	0	0	0	0	759	
14	0	0	0	0	731	
15	0	0	0	0	684	
0	0	0	0	0	641	
1	0	0	0	0	659	
2	0	0	0	0	650	
3	0	0	0	0	644	
4	0	0	0	0	691	
5	0	0	0	0	691	
6	0	0	0	0	679	
7	0	0	0	0	687	
8	0	0	0	0	705	
9	0	0	0	0	720	
10	0	0	0	0	706	
11	0	0	0	0	685	
12	0	0	0	0	678	
13	0	0	0	0	664	
14	0	0	0	0	643	
15	0	0	0	0	626	
0	0	0	0	0	623	
1	0	0	0	0	623	
2	0	0	0	0	610	
3	0	0	0	0	609	
4	0	0	0	0	635	
5	0	0	0	0	662	
6	0	0	0	0	682	
7	0	0	0	0	700	
8	0	0	0	0	703	
9	0	0	0	0	673	
10	0	0	0	0	630	
11	0	0	0	0	614	
12	0	0	0	0	619	
13	0	0	0	0	623	
14	0	0	0	0	615	
15	0	0	0	0	627	
0	0	0	0	0	668	
1	0	0	0	0	700	
2	0	0	0	0	681	
3	0	0	0	0	645	
4	0	0	0	0	629	
5	0	0	0	0	627	
6	0	0	0	0	613	
7	0	0	0	0	597	
8	0	0	0	0	586	
9	0	0	0	0	571	
10	0	0	0	0	561	
11	0	0	0	0	577	
12	0	0	0	0	613	
13	0	0	0	0	634	
14	0	0	0	0	636	
15	0	0	0	0	624	
0	0	0	0	0	613	
1	0	0	0	0	604	
2	0	0	0	0	571	
3	0	0	0	0	543	
4	0	0	0	0	535	
5	0	0	0	0	548	
6	0	0	0	0	558	
7	0	0	0	0	560	
8	0	0	0	0	579	
9	0	0	0	0	598	
10	0	0	0	0	594	
11	0	0	0	0	589	
12	0	0	0	0	593	
13	0	0	0	0	600	
14	0	0	0	0	595	
15	0	0	0	0	601	
0	0	0	0	0	601	
1	0	0	0	0	595	
2	0	0	0	0	581	
3	0	0	0	0	572	
4	0	0	0	0	573	
5	0	0	0	0	577	
6	0	0	0	0	574	
7	0	0	0	0	575	
8	0	0	0	0	587	
9	0	0	0	0	602	
10	0	0	0	0	603	
11	0	0	0	0	601	
12	0	0	0	0	610	
13	0	0	0	0	616	
14	0	0	0	0	609	
15	0	0	0	0	599	
0	0	0	0	0	603	
1	0	0	0	0	607	
2	0	0	0	0	598	
3	0	0	0	0	596	
4	0	0	0	0	598	
5	0	0	0	0	631	
6	0	0	0	0	637	
7	0	0	0	0	635	
8	0	0	0	0	665	
9	0	0	0	0	713	
10	0	0	0	0	704	
11	0	0	0	0	700	
12	0	0	0	0	689	
13	0	0	0	0	669	
14	0	0	0	0	645	
15	0	0	0	0	624	
0	0	0	0	0	615	
1	0	0	0	0	610	
2	0	0	0	0	610	
3	0	0	0	0	615	
4	0	0	0	0	637	
5	0	0	0	0	659	
6	0	0	0	0	667	
7	0	0	0	0	669	
8	0	0	0	0	675	
9	0	0	0	0	677	
10	0	0	0	0	660	
11	0	0	0	0	637	
12	0	0	0	0	628	
13	0	0	0	0	623	
14	0	0	0	0	609	
15	0	0	0	0	592	
0	0	0	0	0	591	
1	0	0	0	0	598	
2	0	0	0	0	594	
3	0	0	0	0	570	
4	0	0	0	0	601	
5	0	0	0	0	591	
6	0	0	0	0	583	
7	0	0	0	0	571	
8	0	0	0	0	577	
9	0	0	0	0	586	
10	0	0	0	0	587	
11	0	0	0	0	591	
12	0	0	0	0	603	
13	0	0	0	0	622	
14	0	0	0	0	624	
15	0	0	0	0	619	
0	0	0	0	0	623	
1	0	0	0	0	628	
2	0	0	0	0	622	
3	0	0	0	0	615	
4	0	0	0	0	624	
5	0	0	0	0	631	
6	0	0	0	0	634	
7	0	0	0	0	635	
8	0	0	0	0	647	
9	0	0	0	0	655	
10	0	0	0	0	662	
11	0	0	0	0	661	
12	0	0	0	0	662	
13	0	0	0	0	660	
14	0	0	0	0	646	
15	0	0	0	0	630	
0	0	0	0	0	630	
1	0	0	0	0	639	
2	0	0	0	0	645	
3	0	0	0	0	648	
4	0	0	0	0	653	
5	0	0	0	0	664	
6	0	0	0	0	667	
7	0	0	0	0	661	
8	0	0	0	0	657	
9	0	0	0	0	647	
10	0	0	0	0	638	
11	0	0	0	0	627	
12	0	0	0	0	624	
13	0	0	0	0	631	
14	0	0	0	0	628	
15	0	0	0	0	630	
0	0	0	0	0	657	
1	0	0	0	0	671	
2	0	0	0	0	664	
3	0	0	0	0	644	
4	0	0	0	0	632	
5	0	0	0	0	622	
6	0	0	0	0	606	
7	0	0	0	0	591	
8	0	0	0	0	597	
9	0	0	0	0	582	
10	0	0	0	0	590	
11	0	0	0	0	592	
12	0	0	0	0	601	
13	0	0	0	0	607	
14	0	0	0	0	603	
15	0	0	0	0	592	
0	0	0	0	0	587	
1	0	0	0	0	588	
2	0	0	0	0	578	
3	0	0	0	0	576	
4	0	0	0	0	590	
5	0	0	0	0	596	
6	0	0	0	0	580	
7	0	0	0	0	577	
8	0	0	0	0	585	
9	0	0	0	0	596	
10	0	0	0	0	597	
11	0	0	0	0	591	
12	0	0	0	0	590	
13	0	0	0	0	593	
14	0	0	0	0	589	
15	0	0	0	0	584	
0	0	0	0	0	591	
1	0	0	0	0	601	
2	0	0	0	0	591	
3	0	0	0	0	575	
4	0	0	0	0	579	
5	0	0	0	0	591	
6	0	0	0	0	595	
7	0	0	0	0	598	
8	0	0	0	0	607	
9	0	0	0	0	610	
10	0	0	0	0	608	
11	0	0	0	0	604	
12	0	0	0	0	601	
13	0	0	0	0	605	
14	0	0	0	0	601	
15	0	0	0	0	598	
0	0	0	0	0	604	
1	0	0	0	0	606	
2	0	0	0	0	604	
3	0	0	0	0	614	
4	0	0	0	0	629	
5	0	0	0	0	643	
6	0	0	0	0	640	
7	0	0	0	0	629	
8	0	0	0	0	630	
9	0	0	0	0	641	
10	0	0	0	0	636	
11	0	0	0	0	636	
12	0	0	0	0	647	
13	0	0	0	0	661	
14	0	0	0	0	659	
15	0	0	0	0	647	
0	0	0	0	0	650	
1	0	0	0	0	655	
2	0	0	0	0	645	
3	0	0	0	0	636	
4	0	0	0	0	646	
5	0	0	0	0	660	
6	0	0	0	0	667	
7	0	0	0	0	659	
8	0	0	0	0	662	
9	0	0	0	0	661	
10	0	0	0	0	655	
11	0	0	0	0	642	
12	0	0	0	0	643	
13	0	0	0	0	650	
14	0	0	0	0	650	
15	0	0	0	0	647	
0	0	0	0	0	646	
1	0	0	0	0	638	
2	0	0	0	0	630	
3	0	0	0	0	616	
4	0	0	0	0	626	
5	0	0	0	0	621	
6	0	0	0	0	608	
7	0	0	0	0	596	
8	0	0	0	0	595	
9	0	0	0	0	593	
10	0	0	0	0	591	
11	0	0	0	0	595	
12	0	0	0	0	610	
13	0	0	0	0	624	
14	0	0	0	0	622	
15	0	0	0	0	611	
0	0	0	0	0	611	
1	0	0	0	0	612	
2	0	0	0	0	600	
3	0	0	0	0	587	
4	0	0	0	0	592	
5	0	0	0	0	591	
6	0	0	0	0	591	
7	0	0	0	0	592	
8	0	0	0	0	608	
9	0	0	0	0	616	
10	0	0	0	0	613	
11	0	0	0	0	609	
12	0	0	0	0	620	
13	0	0	0	0	632	
14	0	0	0	0	636	
15	0	0	0	0	640	
0	0	0	0	0	652	
1	0	0	0	0	656	
2	0	0	0	0	653	
3	0	0	0	0	643	
4	0	0	0	0	642	
5	0	0	0	0	649	
6	0	0	0	0	642	
7	0	0	0	0	636	
8	0	0	0	0	650	
9	0	0	0	0	656	
10	0	0	0	0	642	
11	0	0	0	0	640	
12	0	0	0	0	647	
13	0	0	0	0	647	
14	0	0	0	0	633	
15	0	0	0	0	625	
0	0	0	0	0	626	
1	0	0	0	0	628	
2	0	0	0	0	624	
3	0	0	0	0	623	
4	0	0	0	0	630	
5	0	0	0	0	640	
6	0	0	0	0	644	
7	0	0	0	0	646	
8	0	0	0	0	649	
9	0	0	0	0	650	
10	0	0	0	0	640	
11	0	0	0	0	639	
12	0	0	0	0	652	
13	0	0	0	0	655	
14	0	0	0	0	655	
15	0	0	0	0	643	
0	0	0	0	0	639	
1	0	0	0	0	633	
2	0	0	0	0	636	
3	0	0	0	0	636	
4	0	0	0	0	632	
5	0	0	0	0	622	
6	0	0	0	0	606	
7	0	0	0	0	585	
8	0	0	0	0	583	
9	0	0	0	0	591	
10	0	0	0	0	593	
11	0	0	0	0	587	
12	0	0	0	0	591	
13	0	0	0	0	591	
14	0	0	0	0	582	
15	0	0	0	0	575	
0	0	0	0	0	576	
1	0	0	0	0	575	
2	0	0	0	0	576	
3	0	0	0	0	566	
4	0	0	0	0	577	
5	0	0	0	0	592	
6	0	0	0	0	595	
7	0	0	0	0	589	
8	0	0	0	0	591	
9	0	0	0	0	590	
10	0	0	0	0	581	
11	0	0	0	0	572	
12	0	0	0	0	581	
13	0	0	0	0	595	
14	0	0	0	0	595	
15	0	0	0	0	593	
0	0	0	0	0	603	
1	0	0	0	0	609	
2	0	0	0	0	602	
3	0	0	0	0	589	
4	0	0	0	0	591	
5	0	0	0	0	596	
6	0	0	0	0	593	
7	0	0	0	0	588	
8	0	0	0	0	599	
9	0	0	0	0	601	
10	0	0	0	0	595	
11	0	0	0	0	590	
12	0	0	0	0	601	
13	0	0	0	0	615	
14	0	0	0	0	616	
15	0	0	0	0	616	
0	0	0	0	0	617	
1	0	0	0	0	615	
2	0	0	0	0	610	
3	0	0	0	0	609	
4	0	0	0	0	617	
5	0	0	0	0	635	
6	0	0	0	0	643	
7	0	0	0	0	654	
8	0	0	0	0	665	
9	0	0	0	0	674	
10	0	0	0	0	665	
11	0	0	0	0	651	
12	0	0	0	0	647	
13	0	0	0	0	648	
14	0	0	0	0	643	
15	0	0	0	0	639	
0	0	0	0	0	647	
1	0	0	0	0	655	
2	0	0	0	0	652	
3	0	0	0	0	637	
4	0	0	0	0	636	
5	0	0	0	0	629	
6	0	0	0	0	622	
7	0	0	0	0	618	
8	0	0	0	0	628	
9	0	0	0	0	639	
10	0	0	0	0	638	
11	0	0	0	0	628	
12	0	0	0	0	631	
13	0	0	0	0	628	
14	0	0	0	0	624	
15	0	0	0	0	620	
0	0	0	0	0	621	
1	0	0	0	0	632	
2	0	0	0	0	629	
3	0	0	0	0	626	
4	0	0	0	0	626	
5	0	0	0	0	633	
6	0	0	0	0	623	
7	0	0	0	0	610	
8	0	0	0	0	611	
9	0	0	0	0	619	
10	0	0	0	0	615	
11	0	0	0	0	605	
12	0	0	0	0	603	
13	0	0	0	0	614	
14	0	0	0	0	616	
15	0	0	0	0	612	
0	0	0	0	0	621	
1	0	0	0	0	683	
2	0	0	0	0	613	
3	0	0	0	0	590	
4	0	0	0	0	587	
5	0	0	0	0	602	
6	0	0	0	0	610	
7	0	0	0	0	611	
8	0	0	0	0	605	
9	0	0	0	0	617	
10	0	0	0	0	620	
11	0	0	0	0	615	
12	0	0	0	0	626	
13	0	0	0	0	638	
14	0	0	0	0	633	
15	0	0	0	0	629	
0	0	0	0	0	632	
1	0	0	0	0	635	
2	0	0	0	0	622	
3	0	0	0	0	605	
4	0	0	0	0	623	
5	0	0	0	0	645	
6	0	0	0	0	640	
7	0	0	0	0	631	
8	0	0	0	0	628	
9	0	0	0	0	631	
10	0	0	0	0	626	
11	0	0	0	0	620	
12	0	0	0	0	624	
13	0	0	0	0	630	
14	0	0	0	0	632	
15	0	0	0	0	636	
0	0	0	0	0	649	
1	0	0	0	0	664	
2	0	0	0	0	664	
3	0	0	0	0	665	
4	0	0	0	0	668	
5	0	0	0	0	661	
6	0	0	0	0	643	
7	0	0	0	0	633	
8	0	0	0	0	637	
9	0	0	0	0	643	
10	0	0	0	0	639	
11	0	0	0	0	630	
12	0	0	0	0	635	
13	0	0	0	0	638	
14	0	0	0	0	627	
15	0	0	0	0	607	
0	0	0	0	0	600	
1	0	0	0	0	588	
2	0	0	0	0	596	
3	0	0	0	0	621	
4	0	0	0	0	636	
5	0	0	0	0	620	
6	0	0	0	0	623	
7	0	0	0	0	621	
8	0	0	0	0	625	
9	0	0	0	0	619	
10	0	0	0	0	593	
11	0	0	0	0	578	
12	0	0	0	0	578	
13	0	0	0	0	582	
14	0	0	0	0	584	
15	0	0	0	0	590	
0	0	0	0	0	609	
1	0	0	0	0	625	
2	0	0	0	0	632	
3	0	0	0	0	618	
4	0	0	0	0	606	
5	0	0	0	0	593	
6	0	0	0	0	577	
7	0	0	0	0	568	
8	0	0	0	0	575	
9	0	0	0	0	586	
10	0	0	0	0	592	
11	0	0	0	0	590	
12	0	0	0	0	587	
13	0	0	0	0	587	
14	0	0	0	0	597	
15	0	0	0	0	588	
0	0	0	0	0	591	
1	0	0	0	0	610	
2	0	0	0	0	622	
3	0	0	0	0	619	
4	0	0	0	0	619	
5	0	0	0	0	622	
6	0	0	0	0	611	
7	0	0	0	0	617	
8	0	0	0	0	623	
9	0	0	0	0	621	
10	0	0	0	0	617	
11	0	0	0	0	601	
12	0	0	0	0	597	
13	0	0	0	0	599	
14	0	0	0	0	600	
15	0	0	0	0	605	
0	0	0	0	0	617	
1	0	0	0	0	630	
2	0	0	0	0	635	
3	0	0	0	0	634	
4	0	0	0	0	638	
5	0	0	0	0	637	
6	0	0	0	0	625	
7	0	0	0	0	607	
8	0	0	0	0	617	
9	0	0	0	0	635	
10	0	0	0	0	629	
11	0	0	0	0	611	
12	0	0	0	0	604	
13	0	0	0	0	596	
14	0	0	0	0	594	
15	0	0	0	0	596	
0	0	0	0	0	606	
1	0	0	0	0	615	
2	0	0	0	0	612	
3	0	0	0	0	618	
4	0	0	0	0	632	
5	0	0	0	0	634	
6	0	0	0	0	622	
7	0	0	0	0	611	
8	0	0	0	0	601	
9	0	0	0	0	609	
10	0	0	0	0	601	
11	0	0	0	0	593	
12	0	0	0	0	610	
13	0	0	0	0	618	
14	0	0	0	0	599	
15	0	0	0	0	595	
0	0	0	0	0	621	
1	0	0	0	0	650	
2	0	0	0	0	642	
3	0	0	0	0	626	
4	0	0	0	0	540	
5	0	0	0	0	560	
6	0	0	0	0	560	
7	0	0	0	0	571	
8	0	0	0	0	588	
9	0	0	0	0	605	
10	0	0	0	0	605	
11	0	0	0	0	615	
12	0	0	0	0	633	
13	0	0	0	0	649	
14	0	0	0	0	639	
15	0	0	0	0	623	
0	0	0	0	0	700	
1	0	0	0	0	652	
2	0	0	0	0	545	
3	0	0	0	0	615	
4	0	0	0	0	597	
5	0	0	0	0	631	
6	0	0	0	0	609	
7	0	0	0	0	588	
8	0	0	0	0	595	
9	0	0	0	0	616	
10	0	0	0	0	623	
11	0	0	0	0	632	
12	0	0	0	0	627	
13	0	0	0	0	626	
14	0	0	0	0	600	
15	0	0	0	0	600	
0	0	0	0	0	619	
1	0	0	0	0	623	
2	0	0	0	0	625	
3	0	0	0	0	625	
4	0	0	0	0	612	
5	0	0	0	0	609	
6	0	0	0	0	598	
7	0	0	0	0	589	
8	0	0	0	0	557	
9	0	0	0	0	542	
10	0	0	0	0	578	
11	0	0	0	0	614	
12	0	0	0	0	679	
13	0	0	0	0	555	
14	0	0	0	0	559	
15	0	0	0	0	700	
0	0	0	0	0	472	
1	0	0	0	0	612	
2	0	0	0	0	608	
3	0	0	0	0	648	
4	0	0	0	0	624	
5	0	0	0	0	598	
6	0	0	0	0	592	
7	0	0	0	0	579	
8	0	0	0	0	590	
9	0	0	0	0	605	
10	0	0	0	0	604	
11	0	0	0	0	575	
12	0	0	0	0	558	
13	0	0	0	0	544	
14	0	0	0	0	468	
15	0	0	0	0	404	
0	0	0	0	0	455	
1	0	0	0	0	700	
2	0	0	0	0	797	
3	0	0	0	0	621	
4	0	0	0	0	763	
5	0	0	0	0	643	
6	0	0	0	0	654	
7	0	0	0	0	705	
8	0	0	0	0	683	
9	0	0	0	0	676	
10	0	0	0	0	671	
11	0	0	0	0	641	
12	0	0	0	0	613	
13	0	0	0	0	615	
14	0	0	0	0	588	
15	0	0	0	0	574	
0	0	0	0	0	574	
1	0	0	0	0	577	
2	0	0	0	0	580	
3	0	0	0	0	577	
4	0	0	0	0	585	
5	0	0	0	0	729	
6	0	0	0	0	710	
7	0	0	0	0	671	
8	0	0	0	0	696	
9	0	0	0	0	685	
10	0	0	0	0	646	
11	0	0	0	0	616	
12	0	0	0	0	615	
13	0	0	0	0	605	
14	0	0	0	0	585	
15	0	0	0	0	578	
0	0	0	0	0	573	
1	0	0	0	0	581	
2	0	0	0	0	583	
3	0	0	0	0	693	
4	0	0	0	0	629	
5	0	0	0	0	663	
6	0	0	0	0	665	
7	0	0	0	0	651	
8	0	0	0	0	653	
9	0	0	0	0	634	
10	0	0	0	0	642	
11	0	0	0	0	627	
12	0	0	0	0	625	
13	0	0	0	0	613	
14	0	0	0	0	593	
15	0	0	0	0	581	
0	0	0	0	0	587	
1	0	0	0	0	600	
2	0	0	0	0	609	
3	0	0	0	0	615	
4	0	0	0	0	624	
5	0	0	0	0	637	
6	0	0	0	0	639	
7	0	0	0	0	628	
8	0	0	0	0	624	
9	0	0	0	0	618	
10	0	0	0	0	616	
11	0	0	0	0	602	
12	0	0	0	0	605	
13	0	0	0	0	605	
14	0	0	0	0	611	
15	0	0	0	0	612	
0	0	0	0	0	613	
1	0	0	0	0	615	
2	0	0	0	0	598	
3	0	0	0	0	593	
4	0	0	0	0	614	
5	0	0	0	0	622	
6	0	0	0	0	617	
7	0	0	0	0	609	
8	0	0	0	0	612	
9	0	0	0	0	610	
10	0	0	0	0	604	
11	0	0	0	0	592	
12	0	0	0	0	588	
13	0	0	0	0	604	
14	0	0	0	0	610	
15	0	0	0	0	611	
0	0	0	0	0	625	
1	0	0	0	0	636	
2	0	0	0	0	635	
3	0	0	0	0	617	
4	0	0	0	0	614	
5	0	0	0	0	588	
6	0	0	0	0	595	
7	0	0	0	0	591	
8	0	0	0	0	615	
9	0	0	0	0	620	
10	0	0	0	0	612	
11	0	0	0	0	597	
12	0	0	0	0	605	
13	0	0	0	0	613	
14	0	0	0	0	611	
15	0	0	0	0	604	
0	0	0	0	0	604	
1	0	0	0	0	608	
2	0	0	0	0	600	
3	0	0	0	0	590	
4	0	0	0	0	589	
5	0	0	0	0	593	
6	0	0	0	0	598	
7	0	0	0	0	606	
8	0	0	0	0	619	
9	0	0	0	0	627	
10	0	0	0	0	617	
11	0	0	0	0	602	
12	0	0	0	0	607	
13	0	0	0	0	608	
14	0	0	0	0	598	
15	0	0	0	0	591	
0	0	0	0	0	599	
1	0	0	0	0	614	
2	0	0	0	0	615	
3	0	0	0	0	619	
4	0	0	0	0	622	
5	0	0	0	0	612	
6	0	0	0	0	594	
7	0	0	0	0	583	
8	0	0	0	0	598	
9	0	0	0	0	622	
10	0	0	0	0	633	
11	0	0	0	0	630	
12	0	0	0	0	622	
13	0	0	0	0	615	
14	0	0	0	0	607	
15	0	0	0	0	604	
0	0	0	0	0	612	
1	0	0	0	0	612	
2	0	0	0	0	614	
3	0	0	0	0	616	
4	0	0	0	0	621	
5	0	0	0	0	624	
6	0	0	0	0	614	
7	0	0	0	0	611	
8	0	0	0	0	617	
9	0	0	0	0	622	
10	0	0	0	0	618	
11	0	0	0	0	601	
12	0	0	0	0	608	
13	0	0	0	0	618	
14	0	0	0	0	636	
15	0	0	0	0	614	
0	0	0	0	0	585	
1	0	0	0	0	603	
2	0	0	0	0	619	
3	0	0	0	0	604	
4	0	0	0	0	610	
5	0	0	0	0	613	
6	0	0	0	0	609	
7	0	0	0	0	606	
8	0	0	0	0	608	
9	0	0	0	0	614	
10	0	0	0	0	607	
11	0	0	0	0	611	
12	0	0	0	0	621	
13	0	0	0	0	629	
14	0	0	0	0	629	
15	0	0	0	0	611	
0	0	0	0	0	611	
1	0	0	0	0	611	
2	0	0	0	0	627	
3	0	0	0	0	609	
4	0	0	0	0	616	
5	0	0	0	0	618	
6	0	0	0	0	619	
7	0	0	0	0	608	
8	0	0	0	0	610	
9	0	0	0	0	620	
10	0	0	0	0	616	
11	0	0	0	0	610	
12	0	0	0	0	614	
13	0	0	0	0	616	
14	0	0	0	0	612	
15	0	0	0	0	607	
0	0	0	0	0	610	
1	0	0	0	0	616	
2	0	0	0	0	614	
3	0	0	0	0	602	
4	0	0	0	0	619	
5	0	0	0	0	619	
6	0	0	0	0	614	
7	0	0	0	0	608	
8	0	0	0	0	615	
9	0	0	0	0	617	
10	0	0	0	0	609	
11	0	0	0	0	607	
12	0	0	0	0	612	
13	0	0	0	0	615	
14	0	0	0	0	613	
15	0	0	0	0	613	
0	0	0	0	0	618	
1	0	0	0	0	618	
2	0	0	0	0	607	
3	0	0	0	0	603	
4	0	0	0	0	614	
5	0	0	0	0	615	
6	0	0	0	0	611	
7	0	0	0	0	612	
8	0	0	0	0	617	
9	0	0	0	0	618	
10	0	0	0	0	611	
11	0	0	0	0	609	
12	0	0	0	0	610	
13	0	0	0	0	615	
14	0	0	0	0	619	
15	0	0	0	0	612	
0	0	0	0	0	613	
1	0	0	0	0	619	
2	0	0	0	0	613	
3	0	0	0	0	606	
4	0	0	0	0	610	
5	0	0	0	0	616	
6	0	0	0	0	611	
7	0	0	0	0	608	
8	0	0	0	0	615	
9	0	0	0	0	620	
10	0	0	0	0	612	
11	0	0	0	0	604	
12	0	0	0	0	612	
13	0	0	0	0	616	
14	0	0	0	0	614	
15	0	0	0	0	609	
0	0	0	0	0	615	
1	0	0	0	0	621	
2	0	0	0	0	617	
3	0	0	0	0	611	
4	0	0	0	0	616	
5	0	0	0	0	617	
6	0	0	0	0	612	
7	0	0	0	0	609	
8	0	0	0	0	614	
9	0	0	0	0	618	
10	0	0	0	0	612	
11	0	0	0	0	603	
12	0	0	0	0	611	
13	0	0	0	0	619	
14	0	0	0	0	612	
15	0	0	0	0	610	
0	0	0	0	0	616	
1	0	0	0	0	619	
2	0	0	0	0	611	
3	0	0	0	0	603	
4	0	0	0	0	603	
5	0	0	0	0	610	
6	0	0	0	0	609	
7	0	0	0	0	606	
8	0	0	0	0	611	
9	0	0	0	0	614	
10	0	0	0	0	607	
11	0	0	0	0	611	
12	0	0	0	0	604	
13	0	0	0	0	605	
14	0	0	0	0	612	
15	0	0	0	0	624	
0	0	0	0	0	623	
1	0	0	0	0	615	
2	0	0	0	0	610	
3	0	0	0	0	614	
4	0	0	0	0	623	
5	0	0	0	0	625	
6	0	0	0	0	612	
7	0	0	0	0	599	
8	0	0	0	0	609	
9	0	0	0	0	623	
10	0	0	0	0	618	
11	0	0	0	0	611	
12	0	0	0	0	615	
13	0	0	0	0	618	
14	0	0	0	0	618	
15	0	0	0	0	608	
0	0	0	0	0	606	
1	0	0	0	0	615	
2	0	0	0	0	616	
3	0	0	0	0	608	
4	0	0	0	0	604	
5	0	0	0	0	614	
6	0	0	0	0	608	
7	0	0	0	0	611	
8	0	0	0	0	633	
9	0	0	0	0	629	
10	0	0	0	0	627	
11	0	0	0	0	620	
12	0	0	0	0	617	
13	0	0	0	0	621	
14	0	0	0	0	619	
15	0	0	0	0	600	
0	0	0	0	0	611	
1	0	0	0	0	619	
2	0	0	0	0	613	
3	0	0	0	0	608	
4	0	0	0	0	591	
5	0	0	0	0	588	
6	0	0	0	0	598	
7	0	0	0	0	614	
8	0	0	0	0	614	
9	0	0	0	0	614	
10	0	0	0	0	615	
11	0	0	0	0	615	
12	0	0	0	0	612	
13	0	0	0	0	622	
14	0	0	0	0	616	
15	0	0	0	0	606	
0	0	0	0	0	604	
1	0	0	0	0	612	
2	0	0	0	0	614	
3	0	0	0	0	613	
4	0	0	0	0	618	
5	0	0	0	0	614	
6	0	0	0	0	609	
7	0	0	0	0	611	
8	0	0	0	0	617	
9	0	0	0	0	624	
10	0	0	0	0	608	
11	0	0	0	0	603	
12	0	0	0	0	604	
13	0	0	0	0	622	
14	0	0	0	0	622	
15	0	0	0	0	619	
0	0	0	0	0	620	
1	0	0	0	0	620	
2	0	0	0	0	606	
3	0	0	0	0	603	
4	0	0	0	0	590	
5	0	0	0	0	615	
6	0	0	0	0	625	
7	0	0	0	0	626	
8	0	0	0	0	617	
9	0	0	0	0	615	
10	0	0	0	0	617	
11	0	0	0	0	606	
12	0	0	0	0	606	
13	0	0	0	0	615	
14	0	0	0	0	618	
15	0	0	0	0	609	
0	0	0	0	0	606	
1	0	0	0	0	608	
2	0	0	0	0	613	
3	0	0	0	0	610	
4	0	0	0	0	607	
5	0	0	0	0	612	
6	0	0	0	0	615	
7	0	0	0	0	614	
8	0	0	0	0	617	
9	0	0	0	0	621	
10	0	0	0	0	623	
11	0	0	0	0	611	
12	0	0	0	0	600	
13	0	0	0	0	605	
14	0	0	0	0	612	
15	0	0	0	0	609	
0	0	0	0	0	619	
1	0	0	0	0	608	
2	0	0	0	0	611	
3	0	0	0	0	608	
4	0	0	0	0	614	
5	0	0	0	0	606	
6	0	0	0	0	598	
7	0	0	0	0	608	
8	0	0	0	0	616	
9	0	0	0	0	621	
10	0	0	0	0	619	
11	0	0	0	0	614	
12	0	0	0	0	622	
13	0	0	0	0	625	
14	0	0	0	0	623	
15	0	0	0	0	612	
0	0	0	0	0	610	
1	0	0	0	0	614	
2	0	0	0	0	608	
3	0	0	0	0	608	
4	0	0	0	0	614	
5	0	0	0	0	616	
6	0	0	0	0	611	
7	0	0	0	0	613	
8	0	0	0	0	620	
9	0	0	0	0	617	
10	0	0	0	0	610	
11	0	0	0	0	599	
12	0	0	0	0	588	
13	0	0	0	0	621	
14	0	0	0	0	611	
15	0	0	0	0	607	
0	0	0	0	0	615	
1	0	0	0	0	627	
2	0	0	0	0	612	
3	0	0	0	0	596	
4	0	0	0	0	606	
5	0	0	0	0	627	
6	0	0	0	0	604	
7	0	0	0	0	599	
8	0	0	0	0	614	
9	0	0	0	0	627	
10	0	0	0	0	624	
11	0	0	0	0	613	
12	0	0	0	0	614	
13	0	0	0	0	617	
14	0	0	0	0	608	
15	0	0	0	0	604	
0	0	0	0	0	609	
1	0	0	0	0	619	
2	0	0	0	0	615	
3	0	0	0	0	609	
4	0	0	0	0	622	
5	0	0	0	0	619	
6	0	0	0	0	612	
7	0	0	0	0	609	
8	0	0	0	0	607	
9	0	0	0	0	608	
10	0	0	0	0	604	
11	0	0	0	0	607	
12	0	0	0	0	611	
13	0	0	0	0	617	
14	0	0	0	0	620	
15	0	0	0	0	619	
0	0	0	0	0	614	
1	0	0	0	0	612	
2	0	0	0	0	614	
3	0	0	0	0	611	
4	0	0	0	0	609	
5	0	0	0	0	614	
6	0	0	0	0	617	
7	0	0	0	0	613	
8	0	0	0	0	618	
9	0	0	0	0	599	
10	0	0	0	0	611	
11	0	0	0	0	614	
12	0	0	0	0	601	
13	0	0	0	0	609	
14	0	0	0	0	615	
15	0	0	0	0	610	
0	0	0	0	0	612	
1	0	0	0	0	622	
2	0	0	0	0	614	
3	0	0	0	0	611	
4	0	0	0	0	614	
5	0	0	0	0	607	
6	0	0	0	0	609	
7	0	0	0	0	609	
8	0	0	0	0	619	
9	0	0	0	0	623	
10	0	0	0	0	612	
11	0	0	0	0	597	
12	0	0	0	0	615	
13	0	0	0	0	622	
14	0	0	0	0	612	
15	0	0	0	0	599	
0	0	0	0	0	598	
1	0	0	0	0	612	
2	0	0	0	0	623	
3	0	0	0	0	617	
4	0	0	0	0	627	
5	1	0	0	0	618	
6	1	0	0	0	616	
7	1	0	0	0	603	
8	1	0	0	0	612	
9	1	0	0	0	613	
10	1	0	0	0	605	
11	1	0	0	0	604	
12	1	0	0	0	607	
13	1	0	0	0	615	
14	1	0	0	0	612	
15	1	0	0	0	604	
0	1	0	0	0	602	
1	1	0	0	0	615	
2	1	0	0	0	605	
3	1	0	0	0	612	
4	1	0	0	0	619	
5	1	0	0	0	624	
6	1	0	0	0	608	
7	1	0	0	0	600	
8	1	0	0	0	609	
9	1	0	0	0	613	
10	1	0	0	0	608	
11	1	0	0	0	600	
12	0	0	0	0	613	
13	0	0	0	0	598	
14	0	0	0	0	627	
15	0	0	0	0	617	
0	0	0	0	0	620	
1	0	0	0	0	619	
2	0	0	0	0	617	
3	0	0	0	0	602	
4	0	0	0	0	606	
5	0	0	0	0	584	
6	0	0	0	0	600	
7	0	0	0	0	604	
8	0	0	0	0	614	
9	0	0	0	0	623	
10	0	0	0	0	614	
11	0	0	0	0	611	
12	0	0	0	0	612	
13	0	0	0	0	608	
14	0	0	0	0	602	
15	0	0	0	0	629	
0	0	0	0	0	623	
1	0	0	0	0	604	
2	0	0	0	0	609	
3	0	0	0	0	601	
4	0	0	0	0	609	
5	0	0	0	0	620	
6	0	0	0	0	607	
7	0	0	0	0	608	
8	0	0	0	0	609	
9	0	0	0	0	613	
10	0	0	0	0	606	
11	0	0	0	0	600	
12	0	0	0	0	600	
13	0	0	0	0	602	
14	0	0	0	0	586	
15	0	0	0	0	584	
0	0	0	0	0	600	
1	0	0	0	0	606	
2	0	0	0	0	597	
3	0	0	0	0	588	
4	0	0	0	0	592	
5	0	0	0	0	601	
6	0	0	0	0	599	
7	0	0	0	0	598	
8	0	0	0	0	609	
9	0	0	0	0	609	
10	0	0	0	0	604	
11	0	0	0	0	596	
12	0	0	0	0	603	
13	0	0	0	0	601	
14	0	0	0	0	593	
15	0	0	0	0	596	
0	0	0	0	0	608	
1	0	0	0	0	609	
2	0	0	0	0	612	
3	0	0	0	0	612	
4	0	0	0	0	617	
5	0	0	0	0	628	
6	0	0	0	0	627	
7	0	0	0	0	618	
8	0	0	0	0	617	
9	0	0	0	0	622	
10	0	0	0	0	617	
11	0	0	0	0	615	
12	0	0	0	0	618	
13	0	0	0	0	620	
14	0	0	0	0	617	
15	0	0	0	0	614	
0	0	0	0	0	620	
1	0	0	0	0	623	
2	0	0	0	0	616	
3	0	0	0	0	615	
4	0	0	0	0	627	
5	0	0	0	0	628	
6	0	0	0	0	618	
7	0	0	0	0	616	
8	0	0	0	0	625	
9	0	0	0	0	630	
10	0	0	0	0	623	
11	0	0	0	0	612	
12	0	0	0	0	616	
13	0	0	0	0	623	
14	0	0	0	0	621	
15	0	0	0	0	623	
0	0	0	0	0	627	
1	0	0	0	0	628	
2	0	0	0	0	621	
3	0	0	0	0	614	
4	0	0	0	0	613	
5	0	0	0	0	622	
6	0	0	0	0	618	
7	0	0	0	0	616	
8	0	0	0	0	622	
9	0	0	0	0	625	
10	0	0	0	0	619	
11	0	0	0	0	615	
12	0	0	0	0	619	
13	0	0	0	0	623	
14	0	0	0	0	618	
15	0	0	0	0	609	
0	0	0	0	0	616	
1	0	0	0	0	621	
2	0	0	0	0	614	
3	0	0	0	0	606	
4	0	0	0	0	612	
5	0	0	0	0	617	
6	0	0	0	0	614	
7	0	0	0	0	606	
8	0	0	0	0	616	
9	0	0	0	0	628	
10	0	0	0	0	622	
11	0	0	0	0	614	
12	0	0	0	0	616	
13	0	0	0	0	617	
14	0	0	0	0	595	
15	0	0	0	0	595	
0	0	0	0	0	614	
1	0	0	0	0	627	
2	0	0	0	0	621	
3	0	0	0	0	618	
4	0	0	0	0	640	
5	0	0	0	0	654	
6	0	0	0	0	633	
7	0	0	0	0	603	
8	0	0	0	0	598	
9	0	0	0	0	599	
10	0	0	0	0	598	
11	0	0	0	0	601	
12	0	0	0	0	621	
13	0	0	0	0	628	
14	0	0	0	0	616	
15	0	0	0	0	607	
0	0	0	0	0	605	
1	0	0	0	0	606	
2	0	0	0	0	606	
3	0	0	0	0	607	
4	0	0	0	0	622	
5	0	0	0	0	633	
6	0	0	0	0	621	
7	0	0	0	0	615	
8	0	0	0	0	618	
9	0	0	0	0	626	
10	0	0	0	0	623	
11	0	0	0	0	616	
12	0	0	0	0	619	
13	0	0	0	0	612	
14	0	0	0	0	603	
15	0	0	0	0	602	
0	0	0	0	0	615	
1	0	0	0	0	621	
2	0	0	0	0	606	
3	0	0	0	0	599	
4	0	0	0	0	606	
5	0	0	0	0	617	
6	0	0	0	0	608	
7	0	0	0	0	600	
8	0	0	0	0	613	
9	0	0	0	0	620	
10	0	0	0	0	614	
11	0	0	0	0	610	
12	0	0	0	0	613	
13	0	0	0	0	611	
14	0	0	0	0	600	
15	0	0	0	0	595	
0	0	0	0	0	610	
1	0	0	0	0	616	
2	0	0	0	0	618	
3	0	0	0	0	610	
4	0	0	0	0	611	
5	0	0	0	0	613	
6	0	0	0	0	611	
7	0	0	0	0	604	
8	0	0	0	0	608	
9	0	0	0	0	611	
10	0	0	0	0	608	
11	0	0	0	0	608	
12	0	0	0	0	615	
13	0	0	0	0	617	
14	0	0	0	0	613	
15	0	0	0	0	608	
0	0	0	0	0	611	
1	0	0	0	0	612	
2	0	0	0	0	601	
3	0	0	0	0	599	
4	0	0	0	0	610	
5	0	0	0	0	614	
6	0	0	0	0	614	
7	0	0	0	0	612	
8	0	0	0	0	618	
9	0	0	0	0	620	
10	0	0	0	0	612	
11	0	0	0	0	603	
12	0	0	0	0	608	
13	0	0	0	0	619	
14	0	0	0	0	615	
15	0	0	0	0	610	
0	0	0	0	0	613	
1	0	0	0	0	612	
2	0	0	0	0	606	
3	0	0	0	0	602	
4	0	0	0	0	611	
5	0	0	0	0	620	
6	0	0	0	0	615	
7	0	0	0	0	611	
8	0	0	0	0	615	
9	0	0	0	0	617	
10	0	0	0	0	613	
11	0	0	0	0	610	
12	0	0	0	0	617	
13	0	0	0	0	622	
14	0	0	0	0	612	
15	0	0	0	0	603	
0	0	0	0	0	606	
1	0	0	0	0	614	
2	0	0	0	0	622	
3	0	0	0	0	619	
4	0	0	0	0	613	
5	0	0	0	0	615	
6	0	0	0	0	613	
7	0	0	0	0	607	
8	0	0	0	0	615	
9	0	0	0	0	619	
10	0	0	0	0	610	
11	0	0	0	0	603	
12	0	0	0	0	607	
13	0	0	0	0	613	
14	0	0	0	0	609	
15	0	0	0	0	604	
0	0	0	0	0	608	
1	0	0	0	0	610	
2	0	0	0	0	605	
3	0	0	0	0	599	
4	0	0	0	0	607	
5	0	0	0	0	620	
6	0	0	0	0	617	
7	0	0	0	0	604	
8	0	0	0	0	603	
9	0	0	0	0	611	
10	0	0	0	0	610	
11	0	0	0	0	606	
12	0	0	0	0	612	
13	0	0	0	0	620	
14	0	0	0	0	613	
15	0	0	0	0	609	
0	0	0	0	0	615	
1	0	0	0	0	623	
2	0	0	0	0	618	
3	0	0	0	0	611	
4	0	0	0	0	620	
5	0	0	0	0	625	
6	0	0	0	0	616	
7	0	0	0	0	608	
8	0	0	0	0	614	
9	0	0	0	0	620	
10	0	0	0	0	613	
11	0	0	0	0	605	
12	0	0	0	0	615	
13	0	0	0	0	615	
14	0	0	0	0	611	
15	0	0	0	0	606	
0	0	0	0	0	615	
1	0	0	0	0	624	
2	0	0	0	0	615	
3	0	0	0	0	608	
4	0	0	0	0	612	
5	0	0	0	0	614	
6	0	0	0	0	612	
7	0	0	0	0	611	
8	0	0	0	0	617	
9	0	0	0	0	623	
10	0	0	0	0	619	
11	0	0	0	0	611	
12	0	0	0	0	617	
13	0	0	0	0	620	
14	0	0	0	0	614	
15	0	0	0	0	609	
0	0	0	0	0	614	
1	0	0	0	0	619	
2	0	0	0	0	617	
3	0	0	0	0	611	
4	0	0	0	0	615	
5	0	0	0	0	618	
6	0	0	0	0	612	
7	0	0	0	0	607	
8	0	0	0	0	616	
9	0	0	0	0	620	
10	0	0	0	0	614	
11	0	0	0	0	608	
12	0	0	0	0	614	
13	0	0	0	0	618	
14	0	0	0	0	613	
15	0	0	0	0	610	
0	0	0	0	0	613	
1	0	0	0	0	617	
2	0	0	0	0	612	
3	0	0	0	0	607	
4	0	0	0	0	614	
5	0	0	0	0	619	
6	0	0	0	0	616	
7	0	0	0	0	612	
8	0	0	0	0	615	
9	0	0	0	0	618	
10	0	0	0	0	615	
11	0	0	0	0	613	
12	0	0	0	0	617	
13	0	0	0	0	621	
14	0	0	0	0	616	
15	0	0	0	0	609	
0	0	0	0	0	613	
1	0	0	0	0	617	
2	0	0	0	0	612	
3	0	0	0	0	607	
4	0	0	0	0	613	
5	0	0	0	0	616	
6	0	0	0	0	611	
7	0	0	0	0	608	
8	0	0	0	0	615	
9	0	0	0	0	618	
10	0	0	0	0	611	
11	0	0	0	0	604	
12	0	0	0	0	610	
13	0	0	0	0	615	
14	0	0	0	0	611	
15	0	0	0	0	608	
0	0	0	0	0	614	
1	0	0	0	0	618	
2	0	0	0	0	612	
3	0	0	0	0	606	
4	0	0	0	0	615	
5	0	0	0	0	621	
6	0	0	0	0	609	
7	0	0	0	0	612	
8	0	0	0	0	624	
9	0	0	0	0	617	
10	0	0	0	0	608	
11	0	0	0	0	609	
12	0	0	0	0	618	
13	0	0	0	0	620	
14	0	0	0	0	612	
15	0	0	0	0	605	
0	0	0	0	0	614	
1	0	0	0	0	617	
2	0	0	0	0	612	
3	0	0	0	0	608	
4	0	0	0	0	615	
5	0	0	0	0	617	
6	0	0	0	0	611	
7	0	0	0	0	608	
8	0	0	0	0	615	
9	0	0	0	0	619	
10	0	0	0	0	612	
11	0	0	0	0	607	
12	0	0	0	0	612	
13	0	0	0	0	617	
14	0	0	0	0	611	
15	0	0	0	0	606	
0	0	0	0	0	616	
1	0	0	0	0	621	
