2014.000000000
12.000000000
12.000000000
12.000000000
14.000000000
1.000000000
1000.000000000
1000.000000000
0.219217074
0.216934297
0.214651520
0.213673187
0.211064299
0.210085965
0.208781521
0.209107632
0.211716521
0.214977631
0.219543185
0.225413183
0.229978737
0.231935403
0.235522624
0.239435956
0.243349289
0.248893176
0.254110952
0.260307061
0.263894282
0.264872615
0.263894282
0.261285394
0.259328728
0.257045951
0.254110952
0.251828175
0.247588732
0.242044845
0.234544291
0.228022071
0.220847629
0.214651520
0.210085965
0.208455410
0.206824855
0.204542078
0.203237634
0.202259301
0.201607079
0.203237634
0.205520411
0.210738188
0.215955964
0.219869296
0.224108739
0.227369849
0.230630959
0.234218180
0.239435956
0.245632066
0.251828175
0.256719840
0.258024284
0.258024284
0.255415396
0.253784841
0.250197620
0.248567065
0.246284288
0.242697067
0.237153179
0.230304848
0.223456517
0.215629853
0.209759854
0.205194300
0.202911523
0.200954857
0.198672080
0.197041525
0.195410970
0.194432637
0.195737081
0.198345969
0.202259301
0.207803188
0.212694854
0.217260408
0.219543185
0.223130406
0.225739294
0.230957070
0.237153179
0.242697067
0.247914843
0.250523731
0.251175953
0.248893176
0.247914843
0.244327622
0.242370956
0.240414289
0.237479290
0.231935403
0.226717627
0.219543185
0.212042632
0.205194300
0.200302635
0.196715414
0.194758748
0.192802082
0.192149860
0.190519305
0.188562639
0.188888750
0.191823749
0.195737081
0.200954857
0.204868189
0.210412076
0.213347076
0.215955964
0.219869296
0.223456517
0.229652626
0.235848735
0.241392622
0.244653733
0.246284288
0.245305955
0.243023178
0.240414289
0.237479290
0.235848735
0.233239847
0.229000404
0.224108739
0.217586519
0.210085965
0.202259301
0.197367636
0.193780415
0.191497638
0.189540972
0.188888750
0.186279862
0.186279862
0.185301529
0.187584306
0.190193194
0.195737081
0.200954857
0.205520411
0.209107632
0.213347076
0.215955964
0.219543185
0.224434850
0.230957070
0.237479290
0.241718734
0.243349289
0.243349289
0.241718734
0.239109845
0.236827068
0.234218180
0.231609292
0.228348182
0.223456517
0.216282075
0.209107632
0.202585412
0.195737081
0.190845416
0.188236528
0.187584306
0.186279862
0.183670974
0.182040419
0.182366530
0.182692641
0.184975418
0.188562639
0.194432637
0.199650413
0.204215967
0.207150966
0.210738188
0.213673187
0.219217074
0.224108739
0.230630959
0.235848735
0.238783734
0.239109845
0.237153179
0.235196513
0.231935403
0.229326515
0.228022071
0.225087072
0.220521518
0.214325409
0.206498744
0.199324302
0.192475971
0.187258195
0.184975418
0.182692641
0.180735975
0.178127086
0.177800975
0.176170420
0.176822642
0.178779308
0.182040419
0.187910417
0.192802082
0.197367636
0.200302635
0.202911523
0.206824855
0.211390410
0.216282075
0.223130406
0.229000404
0.231935403
0.233239847
0.232261514
0.230630959
0.226717627
0.224760961
0.222152073
0.219217074
0.215629853
0.209433743
0.203563745
0.195410970
0.188562639
0.182692641
0.178453197
0.176496531
0.174865976
0.173235421
0.170952644
0.168995978
0.169648200
0.170626533
0.174539865
0.179757642
0.183997085
0.189214861
0.192475971
0.195737081
0.198998191
0.203563745
0.209107632
0.214325409
0.220195407
0.224434850
0.226717627
0.226391516
0.224760961
0.221499851
0.219543185
0.216934297
0.214651520
0.211064299
0.206172633
0.199976524
0.192149860
0.185301529
0.178453197
0.174213754
0.170952644
0.169322089
0.168017645
0.166387090
0.164104313
0.163778202
0.164430424
0.167039312
0.172257088
0.176822642
0.182366530
0.185953751
0.189540972
0.193128193
0.196715414
0.200954857
0.207150966
0.213999298
0.218564852
0.221173740
0.221825962
0.220521518
0.217586519
0.215303742
0.212368743
0.211390410
0.207803188
0.204542078
0.197693747
0.190519305
0.183018752
0.176822642
0.170952644
0.168017645
0.166387090
0.164756535
0.163778202
0.161495425
0.160517092
0.160843203
0.162799869
0.167039312
0.171930977
0.176822642
0.182366530
0.185627640
0.188562639
0.191823749
0.195737081
0.201933190
0.207803188
0.213347076
0.217586519
0.218564852
0.217586519
0.215955964
0.213347076
0.211390410
0.209433743
0.205846522
0.202259301
0.197041525
0.190519305
0.182692641
0.175518198
0.169322089
0.165734868
0.164104313
0.162473758
0.160517092
0.159538759
0.157582093
0.158234315
0.158886537
0.162473758
0.167365423
0.172909310
0.177800975
0.181062086
0.184975418
0.188236528
0.192149860
0.197693747
0.203889856
0.209759854
0.214325409
0.215629853
0.215955964
0.213999298
0.211390410
0.209433743
0.206498744
0.204215967
0.200628746
0.196063192
0.188562639
0.182692641
0.175844309
0.168669867
0.164104313
0.161495425
0.159538759
0.157908204
0.156929871
0.154973205
0.154973205
0.155625427
0.157582093
0.162147647
0.166387090
0.172257088
0.175844309
0.179431531
0.183670974
0.186605973
0.191497638
0.197041525
0.203889856
0.208455410
0.211390410
0.211716521
0.210412076
0.208129299
0.205194300
0.203237634
0.200302635
0.198345969
0.193454304
0.187584306
0.180083753
0.173235421
0.166060979
0.161169314
0.157908204
0.155951538
0.153668761
0.153016539
0.151059873
0.150081540
0.151059873
0.152364317
0.156277649
0.161169314
0.167365423
0.170952644
0.174213754
0.177800975
0.181388197
0.185953751
0.191497638
0.197367636
0.203237634
0.207150966
0.209759854
0.207803188
0.207477077
0.204542078
0.201607079
0.199976524
0.197041525
0.194432637
0.189214861
0.182366530
0.175518198
0.168017645
0.163125980
0.159212648
0.157255982
0.156603760
0.155625427
0.153342650
0.153016539
0.153016539
0.154973205
0.159212648
0.164756535
0.169648200
0.174865976
0.179431531
0.183018752
0.187258195
0.190845416
0.196715414
0.203889856
0.211064299
0.215303742
0.217586519
0.217912630
0.216934297
0.214977631
0.212368743
0.211390410
0.209433743
0.207150966
0.202259301
0.195737081
0.189214861
0.183018752
0.177148753
0.172257088
0.171278755
0.169322089
0.168669867
0.167691534
0.166060979
0.166713201
0.168669867
0.171278755
0.176170420
0.182366530
0.188888750
0.192802082
0.196063192
0.199976524
0.204542078
0.209759854
0.216282075
0.222152073
0.228348182
0.231935403
0.232587625
0.231935403
0.229978737
0.227695960
0.225739294
0.224760961
0.221499851
0.217912630
0.211716521
0.205846522
0.198345969
0.192475971
0.188236528
0.185953751
0.183670974
0.183344863
0.182366530
0.181388197
0.180409864
0.181714308
0.183670974
0.188236528
0.193780415
0.199324302
0.204215967
0.207803188
0.211390410
0.216282075
0.220521518
0.226391516
0.232587625
0.238783734
0.242697067
0.245305955
0.244653733
0.243023178
0.240414289
0.237805401
0.235848735
0.234218180
0.230630959
0.226065405
0.218890963
0.211716521
0.205520411
0.199324302
0.196715414
0.194106526
0.193128193
0.192149860
0.190845416
0.190193194
0.190519305
0.193128193
0.195084859
0.200628746
0.205846522
0.211064299
0.215629853
0.219217074
0.223456517
0.228022071
0.232913736
0.239109845
0.245958177
0.250849842
0.253132619
0.253132619
0.251828175
0.249219287
0.247588732
0.245305955
0.243675400
0.240414289
0.235522624
0.229978737
0.223130406
0.216934297
0.210412076
0.205194300
0.203889856
0.202585412
0.201607079
0.199650413
0.199650413
0.199650413
0.199976524
0.202911523
0.208129299
0.213347076
0.218564852
0.222804295
0.226717627
0.230630959
0.234870402
0.238783734
0.244979844
0.251175953
0.256393729
0.260633172
0.260959283
0.260307061
0.258676506
0.256067618
0.253784841
0.252480397
0.249219287
0.245632066
0.239762067
0.232587625
0.225413183
0.220195407
0.213999298
0.211064299
0.210085965
0.209107632
0.208129299
0.206498744
0.205194300
0.206498744
0.207803188
0.211390410
0.217912630
0.223130406
0.228022071
0.232261514
0.235196513
0.239109845
0.243349289
0.249545398
0.255415396
0.261285394
0.265198726
0.267155392
0.266177059
0.265198726
0.262915949
0.260633172
0.258350395
0.256393729
0.252806508
0.245958177
0.240740400
0.234218180
0.226717627
0.220847629
0.217260408
0.215629853
0.213673187
0.212694854
0.210738188
0.209759854
0.210085965
0.212042632
0.214977631
0.220195407
0.225739294
0.230304848
0.233239847
0.237805401
0.240088178
0.244327622
0.250197620
0.256719840
0.262589838
0.267807614
0.269438169
0.269112058
0.267155392
0.264546504
0.262915949
0.259654839
0.257372062
0.254110952
0.249545398
0.242370956
0.235848735
0.228674293
0.221825962
0.217586519
0.214325409
0.212368743
0.211716521
0.209433743
0.207477077
0.207803188
0.208129299
0.209759854
0.213347076
0.220195407
0.225413183
0.228674293
0.231609292
0.234870402
0.239435956
0.243023178
0.248567065
0.254437063
0.259980950
0.262263727
0.262915949
0.261937616
0.259328728
0.256393729
0.253458730
0.250523731
0.248240954
0.243023178
0.236827068
0.229978737
0.222804295
0.216608186
0.210738188
0.206498744
0.205520411
0.203889856
0.201607079
0.199976524
0.198672080
0.198019858
0.200954857
0.205194300
0.209433743
0.214325409
0.218890963
0.222152073
0.226065405
0.228674293
0.233239847
0.237479290
0.244653733
0.249871509
0.254110952
0.254763174
0.253784841
0.252154286
0.249219287
0.246610399
0.245305955
0.241392622
0.238131512
0.233239847
0.225413183
0.219217074
0.211716521
0.205846522
0.201607079
0.199976524
0.198345969
0.197041525
0.195084859
0.194106526
0.193454304
0.194432637
0.197367636
0.202585412
0.207803188
0.212042632
0.215955964
0.219543185
0.222804295
0.226391516
0.231609292
0.237153179
0.243023178
0.247262621
0.248893176
0.247588732
0.245958177
0.244979844
0.241066511
0.238457623
0.235848735
0.232587625
0.227695960
0.220521518
0.212368743
0.205194300
0.199650413
0.194432637
0.191497638
0.189867083
0.188562639
0.186279862
0.185627640
0.184975418
0.184975418
0.187910417
0.192149860
0.197367636
0.201933190
0.205846522
0.210412076
0.213673187
0.216608186
0.221499851
0.226717627
0.232913736
0.238457623
0.241066511
0.241066511
0.240414289
0.237153179
0.234870402
0.232587625
0.229978737
0.225739294
0.221825962
0.216282075
0.209107632
0.201933190
0.194106526
0.188888750
0.185953751
0.183997085
0.182366530
0.180083753
0.179105419
0.177474864
0.178453197
0.179757642
0.183344863
0.188562639
0.193128193
0.197693747
0.201280968
0.203889856
0.207803188
0.211716521
0.217586519
0.223456517
0.229000404
0.232261514
0.233892069
0.233892069
0.230957070
0.228674293
0.226065405
0.223456517
0.220195407
0.216608186
0.212368743
0.204868189
0.198019858
0.190519305
0.184975418
0.181062086
0.177800975
0.177148753
0.175518198
0.173235421
0.172257088
0.172257088
0.173235421
0.175192087
0.181388197
0.187258195
0.191823749
0.196063192
0.198998191
0.201933190
0.205846522
0.210738188
0.216934297
0.223782628
0.228348182
0.229652626
0.229978737
0.228348182
0.225739294
0.223130406
0.219869296
0.217912630
0.214977631
0.210412076
0.203237634
0.196063192
0.188888750
0.183018752
0.178453197
0.175518198
0.173887643
0.172257088
0.170626533
0.170300422
0.168343756
0.168995978
0.171604866
0.176496531
0.182040419
0.186932084
0.190845416
0.194432637
0.197367636
0.200954857
0.205194300
0.211064299
0.216934297
0.222804295
0.226391516
0.225739294
0.224434850
0.222152073
0.220195407
0.216608186
0.214977631
0.210738188
0.207150966
0.199976524
0.194106526
0.185953751
0.179105419
0.174213754
0.170952644
0.168995978
0.168017645
0.166060979
0.163778202
0.163778202
0.165082646
0.166060979
0.169648200
0.175192087
0.179431531
0.184649307
0.188236528
0.191497638
0.194106526
0.198672080
0.204542078
0.210738188
0.215955964
0.219217074
0.221499851
0.220521518
0.217912630
0.215955964
0.213347076
0.210412076
0.208781521
0.203889856
0.199324302
0.192475971
0.184323196
0.177474864
0.171604866
0.167365423
0.165082646
0.163778202
0.162799869
0.160843203
0.159864870
0.158886537
0.160517092
0.163778202
0.168343756
0.173887643
0.179105419
0.182692641
0.185953751
0.188888750
0.192475971
0.197367636
0.202911523
0.208781521
0.213020965
0.215629853
0.215303742
0.213673187
0.211064299
0.208129299
0.205846522
0.203889856
0.199976524
0.194432637
0.188562639
0.181388197
0.174539865
0.168017645
0.163452091
0.160190981
0.157908204
0.156603760
0.155625427
0.153994872
0.153016539
0.153668761
0.155625427
0.159864870
0.165408757
0.170952644
0.174539865
0.178779308
0.181388197
0.185301529
0.188236528
0.194106526
0.200628746
0.206172633
0.209433743
0.210085965
0.208129299
0.206172633
0.203237634
0.200302635
0.198345969
0.195410970
0.191497638
0.184649307
0.178127086
0.169974311
0.164104313
0.157908204
0.154973205
0.153016539
0.151712095
0.150407651
0.148450985
0.148124873
0.148124873
0.150081540
0.153342650
0.158560426
0.163778202
0.168343756
0.172257088
0.175192087
0.178453197
0.182366530
0.188236528
0.194758748
0.199650413
0.204542078
0.205520411
0.204868189
0.202585412
0.199324302
0.197041525
0.194758748
0.192475971
0.188888750
0.183018752
0.176496531
0.169322089
0.162147647
0.155299316
0.151712095
0.149429318
0.148450985
0.146494318
0.145515985
0.144211541
0.143559319
0.144863763
0.148777096
0.151712095
0.158234315
0.162799869
0.167039312
0.169974311
0.172909310
0.177474864
0.181388197
0.187910417
0.194432637
0.198672080
0.200628746
0.200954857
0.199324302
0.196063192
0.194106526
0.191497638
0.188562639
0.185301529
0.181062086
0.174865976
0.167365423
0.160517092
0.154647094
0.149755429
0.147472651
0.145842096
0.145515985
0.143559319
0.142907097
0.142254875
0.143233208
0.145515985
0.150407651
0.155951538
0.162147647
0.166713201
0.170952644
0.174213754
0.178453197
0.183997085
0.189867083
0.196389303
0.201607079
0.205194300
0.206824855
0.205846522
0.204215967
0.202259301
0.199650413
0.198345969
0.195410970
0.191823749
0.186932084
0.180083753
0.173235421
0.167365423
0.162799869
0.159864870
0.158560426
0.157582093
0.157255982
0.156603760
0.156929871
0.156603760
0.158886537
0.163452091
0.169322089
0.174539865
0.181062086
0.184323196
0.188888750
0.192149860
0.196715414
0.203237634
0.210085965
0.215303742
0.220847629
0.223130406
0.222152073
0.221173740
0.219217074
0.216934297
0.214977631
0.213020965
0.210085965
0.205520411
0.198998191
0.192475971
0.185627640
0.180735975
0.176496531
0.175844309
0.175844309
0.173887643
0.173561532
0.172909310
0.172909310
0.174539865
0.178453197
0.183997085
0.189867083
0.195737081
0.200628746
0.203889856
0.207477077
0.212042632
0.216934297
0.223456517
0.230630959
0.235848735
0.238131512
0.239109845
0.237153179
0.235522624
0.231609292
0.231283181
0.228348182
0.226065405
0.221825962
0.215303742
0.209433743
0.202259301
0.196063192
0.191823749
0.188888750
0.187910417
0.187258195
0.186605973
0.184975418
0.184649307
0.185301529
0.189214861
0.193780415
0.199324302
0.205520411
0.209107632
0.213347076
0.216608186
0.220521518
0.225739294
0.231283181
0.237479290
0.244001511
0.246936510
0.248893176
0.247588732
0.245632066
0.243349289
0.240414289
0.238457623
0.237153179
0.232913736
0.227043738
0.220847629
0.213020965
0.207150966
0.201933190
0.198345969
0.197367636
0.196389303
0.196063192
0.194432637
0.194106526
0.195084859
0.196389303
0.201280968
0.206172633
0.212368743
0.216282075
0.221499851
0.224760961
0.228022071
0.232587625
0.238131512
0.244001511
0.251175953
0.255089285
0.257045951
0.257045951
0.254437063
0.252480397
0.249545398
0.247588732
0.244653733
0.242370956
0.235848735
0.230304848
0.223782628
0.216608186
0.211064299
0.206498744
0.204542078
0.203237634
0.202259301
0.201607079
0.199976524
0.200302635
0.201933190
0.204542078
0.209107632
0.215303742
0.220847629
0.224108739
0.229000404
0.232913736
0.236174846
0.240740400
0.246936510
0.253784841
0.258350395
0.260959283
0.261285394
0.259654839
0.258024284
0.255089285
0.252806508
0.250523731
0.247914843
0.243349289
0.236827068
0.230630959
0.223130406
0.216608186
0.212042632
0.210085965
0.208455410
0.207477077
0.206498744
0.205520411
0.204868189
0.205194300
0.207477077
0.211716521
0.217586519
0.222804295
0.227369849
0.229652626
0.233892069
0.237479290
0.242044845
0.246610399
0.253784841
0.259002617
0.261611505
0.262915949
0.261285394
0.259328728
0.256067618
0.253132619
0.250523731
0.248240954
0.244979844
0.238783734
0.231609292
0.223782628
0.217260408
0.212042632
0.208781521
0.206498744
0.205520411
0.204542078
0.202911523
0.202585412
0.202911523
0.204215967
0.207803188
0.212694854
0.218238741
0.223130406
0.226065405
0.229000404
0.233565958
0.236827068
0.241718734
0.247914843
0.253458730
0.257698173
0.258676506
0.257372062
0.254763174
0.253458730
0.250197620
0.246610399
0.245305955
0.241066511
0.234544291
0.227695960
0.220521518
0.213020965
0.206824855
0.201607079
0.199976524
0.198672080
0.197367636
0.195737081
0.194432637
0.194106526
0.194106526
0.197367636
0.201607079
0.207477077
0.211716521
0.215629853
0.218238741
0.220847629
0.225087072
0.229326515
0.235848735
0.241718734
0.245632066
0.248240954
0.248893176
0.246284288
0.243675400
0.240088178
0.237479290
0.234870402
0.231283181
0.227369849
0.221173740
0.212694854
0.205846522
0.199324302
0.194432637
0.191497638
0.190193194
0.188888750
0.187584306
0.186605973
0.184975418
0.185627640
0.188562639
0.191823749
0.197693747
0.203237634
0.207477077
0.210085965
0.213347076
0.217260408
0.221173740
0.226717627
0.232913736
0.238457623
0.241392622
0.242044845
0.240414289
0.237805401
0.234870402
0.232261514
0.229978737
0.226391516
0.222804295
0.215955964
0.209107632
0.201607079
0.194432637
0.189867083
0.185953751
0.183018752
0.182366530
0.181062086
0.179757642
0.178127086
0.179105419
0.180083753
0.184323196
0.188888750
0.194106526
0.199324302
0.202259301
0.205520411
0.209107632
0.212694854
0.217586519
0.223782628
0.229326515
0.233565958
0.235522624
0.233892069
0.231935403
0.229000404
0.226065405
0.222804295
0.221173740
0.216934297
0.212368743
0.205520411
0.197693747
0.189867083
0.184323196
0.180409864
0.177800975
0.177148753
0.175518198
0.174539865
0.172583199
0.172583199
0.173887643
0.176496531
0.181062086
0.186605973
0.192149860
0.196063192
0.199324302
0.202259301
0.206824855
0.210738188
0.217586519
0.223456517
0.227369849
0.230630959
0.229978737
0.228022071
0.226065405
0.223130406
0.220847629
0.216934297
0.214325409
0.209433743
0.203563745
0.196063192
0.188562639
0.182040419
0.177148753
0.174213754
0.172909310
0.171604866
0.168995978
0.168017645
0.167365423
0.168017645
0.170626533
0.173887643
0.179105419
0.184649307
0.188888750
0.191171527
0.195410970
0.198672080
0.202911523
0.208129299
0.213999298
0.219543185
0.221825962
0.222804295
0.221825962
0.219543185
0.216934297
0.213347076
0.210738188
0.207150966
0.203889856
0.198019858
0.190519305
0.183344863
0.176170420
0.170626533
0.167039312
0.164756535
0.164430424
0.162147647
0.161169314
0.159864870
0.159538759
0.162799869
0.165734868
0.170952644
0.175518198
0.180409864
0.183997085
0.186932084
0.190519305
0.194432637
0.199650413
0.205520411
0.211716521
0.215303742
0.216934297
0.215955964
0.214977631
0.211390410
0.208455410
0.205520411
0.202911523
0.199324302
0.194106526
0.187910417
0.180083753
0.173561532
0.166713201
0.162147647
0.160190981
0.158886537
0.157908204
0.156603760
0.154647094
0.154973205
0.156929871
0.159538759
0.162799869
0.168995978
0.173887643
0.178453197
0.181714308
0.184649307
0.188562639
0.192802082
0.198998191
0.204542078
0.209107632
0.211064299
0.211064299
0.208129299
0.205194300
0.203563745
0.199976524
0.197367636
0.194106526
0.188888750
0.182366530
0.174865976
0.167039312
0.159864870
0.155299316
0.152364317
0.150081540
0.150081540
0.147798762
0.147146540
0.145515985
0.146494318
0.148124873
0.152364317
0.157255982
0.163125980
0.167691534
0.171278755
0.173561532
0.176822642
0.181714308
0.186932084
0.192802082
0.198345969
0.202585412
0.201933190
0.200954857
0.198345969
0.195084859
0.192149860
0.189540972
0.186605973
0.182692641
0.176822642
0.169974311
0.162147647
0.155299316
0.149103207
0.146494318
0.143885430
0.142254875
0.141928764
0.139972098
0.138341543
0.139319876
0.140950431
0.143559319
0.149429318
0.153342650
0.158886537
0.162473758
0.165734868
0.169322089
0.173561532
0.177800975
0.183997085
0.190519305
0.194432637
0.195737081
0.194758748
0.191497638
0.189867083
0.186279862
0.184975418
0.181062086
0.178453197
0.173235421
0.166060979
0.158234315
0.151059873
0.145189874
0.140950431
0.138993765
0.136710988
0.136384877
0.135406544
0.134102100
0.135080433
0.135080433
0.137689321
0.141928764
0.147146540
0.153016539
0.157255982
0.160190981
0.163778202
0.167365423
0.171278755
0.177474864
0.183670974
0.188236528
0.190519305
0.190519305
0.188888750
0.185953751
0.183344863
0.180409864
0.178453197
0.174865976
0.169974311
0.163778202
0.155951538
0.149429318
0.142254875
0.137363210
0.135080433
0.132471545
0.131819323
0.131493212
0.129536546
0.128884324
0.130188768
0.131493212
0.135406544
0.140624320
0.147146540
0.150407651
0.153994872
0.157908204
0.161169314
0.166060979
0.171278755
0.177474864
0.182366530
0.186279862
0.187584306
0.186279862
0.183670974
0.181714308
0.177800975
0.174865976
0.172909310
0.169322089
0.162473758
0.156277649
0.149429318
0.142580986
0.137037099
0.134102100
0.132471545
0.132145434
0.130514879
0.129862657
0.128884324
0.129210435
0.130514879
0.134754322
0.139645987
0.146820429
0.151712095
0.155299316
0.158560426
0.162799869
0.166387090
0.172909310
0.179105419
0.184975418
0.189540972
0.191497638
0.191497638
0.189867083
0.186605973
0.185627640
0.183018752
0.180409864
0.178127086
0.173235421
0.166713201
0.160517092
0.153016539
0.147472651
0.143885430
0.142907097
0.142254875
0.141602653
0.139972098
0.139319876
0.140298209
0.141602653
0.144863763
0.150081540
0.156277649
0.161821536
0.166713201
0.169974311
0.173887643
0.178453197
0.184323196
0.190193194
0.196715414
0.201933190
0.204542078
0.205846522
0.204542078
0.201607079
0.199324302
0.196715414
0.194758748
0.192802082
0.188236528
0.182040419
0.176170420
0.168669867
0.162473758
0.157255982
0.154973205
0.153994872
0.153668761
0.153016539
0.152690428
0.152690428
0.152038206
0.155625427
0.159864870
0.165408757
0.170952644
0.176496531
0.179757642
0.183670974
0.187910417
0.192475971
0.198019858
0.203563745
0.210738188
0.213999298
0.214977631
0.213347076
0.211390410
0.208781521
0.206172633
0.203563745
0.201607079
0.197367636
0.192802082
0.185301529
0.178127086
0.172257088
0.166060979
0.162799869
0.161495425
0.160517092
0.159864870
0.159212648
0.157908204
0.158560426
0.160517092
0.164430424
0.169974311
0.175518198
0.181062086
0.184975418
0.188236528
0.191823749
0.196063192
0.202259301
0.208129299
0.213999298
0.218238741
0.220521518
0.220521518
0.218890963
0.216608186
0.213347076
0.211064299
0.209759854
0.205194300
0.200628746
0.194432637
0.187910417
0.181714308
0.175518198
0.171604866
0.169974311
0.168343756
0.167365423
0.167365423
0.164756535
0.165082646
0.166713201
0.169648200
0.175518198
0.180735975
0.186605973
0.191171527
0.195084859
0.198019858
0.202585412
0.207477077
0.212694854
0.219869296
0.224760961
0.227369849
0.227369849
0.226391516
0.224760961
0.221173740
0.218564852
0.216934297
0.213999298
0.210085965
0.204215967
0.196715414
0.189540972
0.183997085
0.178779308
0.176496531
0.175192087
0.174539865
0.173887643
0.173235421
0.171930977
0.172583199
0.176170420
0.180083753
0.186279862
0.190845416
0.196063192
0.199650413
0.204542078
0.206498744
0.211390410
0.216934297
0.223456517
0.229326515
0.232261514
0.234218180
0.233565958
0.231609292
0.228348182
0.226065405
0.223782628
0.220847629
0.217260408
0.211716521
0.204868189
0.198345969
0.191497638
0.185953751
0.182040419
0.180409864
0.179757642
0.178453197
0.177474864
0.176822642
0.177148753
0.179757642
0.182692641
0.187584306
0.193454304
0.198998191
0.202259301
0.205194300
0.209759854
0.213347076
0.217912630
0.224108739
0.229978737
0.233892069
0.235196513
0.234544291
0.232913736
0.229326515
0.227043738
0.223456517
0.221825962
0.217260408
0.213347076
0.206498744
0.198672080
0.190845416
0.184649307
0.180735975
0.178453197
0.176170420
0.175844309
0.174213754
0.172909310
0.172257088
0.173235421
0.175192087
0.181062086
0.185301529
0.190845416
0.195084859
0.196715414
0.200628746
0.203237634
0.209107632
0.214325409
0.219543185
0.224108739
0.226717627
0.227043738
0.224760961
0.221825962
0.217586519
0.215955964
0.212694854
0.209759854
0.204542078
0.199324302
0.191497638
0.183670974
0.176496531
0.171604866
0.168995978
0.167039312
0.165408757
0.163778202
0.162799869
0.161821536
0.161821536
0.164104313
0.167365423
0.172583199
0.178779308
0.182040419
0.185953751
0.188236528
0.191497638
0.195737081
0.200954857
0.205846522
0.211716521
0.215303742
0.215955964
0.213999298
0.210738188
0.207477077
0.204868189
0.201280968
0.198998191
0.194106526
0.188562639
0.180735975
0.173235421
0.166387090
0.160517092
0.156277649
0.154320983
0.153016539
0.151712095
0.150733762
0.149755429
0.149429318
0.151059873
0.154320983
0.159212648
0.164756535
0.169648200
0.172583199
0.176822642
0.179105419
0.182692641
0.186605973
0.193128193
0.199324302
0.203563745
0.204542078
0.203237634
0.201933190
0.198345969
0.195410970
0.192149860
0.188888750
0.185627640
0.180409864
0.173887643
0.166387090
0.159538759
0.153016539
0.147798762
0.145842096
0.144863763
0.143233208
0.142580986
0.141276542
0.141276542
0.141602653
0.145515985
0.149755429
0.154647094
0.159538759
0.164104313
0.167691534
0.170626533
0.173887643
0.178779308
0.184649307
0.190519305
0.195410970
0.197693747
0.197693747
0.195410970
0.193128193
0.189214861
0.187584306
0.184649307
0.181062086
0.176496531
0.169648200
0.162473758
0.155951538
0.148777096
0.143885430
0.139972098
0.138667654
0.137037099
0.136058766
0.134428211
0.133775989
0.135080433
0.136058766
0.139645987
0.145189874
0.150407651
0.155625427
0.159212648
0.161821536
0.165082646
0.169322089
0.174213754
0.180409864
0.185953751
0.188562639
0.190519305
0.188888750
0.186279862
0.182040419
0.180083753
0.177148753
0.173887643
0.169322089
0.163452091
0.156929871
0.148777096
0.142580986
0.136384877
0.132145434
0.130840990
0.129210435
0.127579880
0.126275436
0.125623214
0.125297103
0.126275436
0.129536546
0.135732655
0.140298209
0.145189874
0.149103207
0.152364317
0.154973205
0.157908204
0.163452091
0.168995978
0.174865976
0.179105419
0.180735975
0.180083753
0.177800975
0.173887643
0.170952644
0.167691534
0.165082646
0.161169314
0.155951538
0.148450985
0.141276542
0.133449878
0.126275436
0.121383771
0.119427105
0.117470439
0.116165994
0.115839883
0.114209328
0.113230995
0.114861550
0.116818216
0.120405438
0.126275436
0.130840990
0.135406544
0.138993765
0.141928764
0.144863763
0.149103207
0.155299316
0.161169314
0.166060979
0.168017645
0.168343756
0.166387090
0.163452091
0.159864870
0.156929871
0.154647094
0.151385984
0.147146540
0.140950431
0.132797656
0.125623214
0.118774883
0.113230995
0.110622107
0.108339330
0.107687108
0.106382664
0.104099887
0.104425998
0.105404331
0.106708775
0.110948218
0.115513772
0.121057660
0.124970992
0.129210435
0.132145434
0.135732655
0.139319876
0.144211541
0.150081540
0.155625427
0.159212648
0.159212648
0.159864870
0.155625427
0.152364317
0.148777096
0.146168207
0.143233208
0.139645987
0.133449878
0.126275436
0.118774883
0.111600440
0.105404331
0.100838777
0.099534333
0.098229889
0.096925445
0.095621001
0.094968779
0.094642668
0.096273223
0.099208222
0.103773776
0.108339330
0.114535439
0.117470439
0.121383771
0.123992659
0.128232102
0.132471545
0.137689321
0.144537652
0.147798762
0.149755429
0.148124873
0.146168207
0.142907097
0.139645987
0.136710988
0.133449878
0.130188768
0.123992659
0.117144327
0.110295996
0.102795443
0.096273223
0.091707669
0.089424892
0.088120448
0.086163781
0.085511559
0.084207115
0.083554893
0.084533226
0.086489893
0.090403225
0.095294890
0.101164888
0.105404331
0.108991552
0.112252662
0.115513772
0.120079327
0.125949325
0.131493212
0.136058766
0.138015432
0.138341543
0.136058766
0.133449878
0.130188768
0.126601547
0.123992659
0.120079327
0.117144327
0.109643774
0.102469332
0.094316557
0.087794337
0.081924338
0.078663228
0.077032673
0.076054340
0.075402118
0.073445452
0.072793230
0.072467119
0.074097674
0.078011006
0.083881004
0.088446559
0.093012113
0.096925445
0.099534333
0.102469332
0.106056553
0.112252662
0.118448772
0.123340437
0.125949325
0.126927658
0.124318770
0.123014326
0.119100994
0.116492105
0.112578773
0.110295996
0.105730442
0.100512666
0.093338224
0.085185448
0.078337117
0.072793230
0.068227676
0.065944899
0.064640455
0.062683789
0.062031567
0.061705456
0.060074901
0.062683789
0.064966566
0.070184342
0.075402118
0.080293783
0.084207115
0.087142115
0.089751003
0.093990446
0.098229889
0.103121554
0.109643774
0.113230995
0.115513772
0.113557106
0.111600440
0.108665441
0.104752109
0.102469332
0.098882111
0.094642668
0.090403225
0.083881004
0.076380451
0.068879898
0.062031567
0.057792124
0.055835458
0.053226569
0.052248236
0.051922125
0.050617681
0.049965459
0.050617681
0.054204902
0.058770457
0.063336011
0.068879898
0.072793230
0.075402118
0.079315450
0.082902671
0.087468226
0.093012113
0.099208222
0.103773776
0.106382664
0.107360997
0.104752109
0.102795443
0.098882111
0.096273223
0.093990446
0.091055447
0.087468226
0.081272116
0.074097674
0.066923232
0.060401012
0.055509347
0.052248236
0.051269903
0.050943792
0.049965459
0.049965459
0.048987126
0.049965459
0.052248236
0.056487680
0.062357678
0.067575454
0.073445452
0.077684895
0.081272116
0.084859337
0.088120448
0.094642668
0.100512666
0.107034886
0.111600440
0.111926551
0.110622107
0.108991552
0.105730442
0.104099887
0.101164888
0.099208222
0.094968779
0.089751003
0.083881004
0.077684895
0.069858231
0.063662122
0.060727123
0.059096568
0.059422679
0.058444346
0.057466013
0.056487680
0.058444346
0.060074901
0.063336011
0.069206009
0.074097674
0.079967672
0.085511559
0.088772670
0.092359891
0.096599334
0.102143221
0.108665441
0.115187661
0.120731549
0.122688215
0.123014326
0.121709882
0.118774883
0.116492105
0.113557106
0.111274329
0.108991552
0.103447665
0.097577667
0.090403225
0.083228782
0.077358784
0.073445452
0.070510453
0.070184342
0.069532120
0.068879898
0.068879898
0.068879898
0.070836564
0.073119341
0.078011006
0.084207115
0.089424892
0.094316557
0.098882111
0.101164888
0.106708775
0.111600440
0.116165994
0.123340437
0.128884324
0.132471545
0.132471545
0.130840990
0.128884324
0.125623214
0.123340437
0.121383771
0.118448772
0.114535439
0.108991552
0.102795443
0.095294890
0.088446559
0.084207115
0.080619894
0.079967672
0.079967672
0.079315450
0.077684895
0.077684895
0.078337117
0.080619894
0.085185448
0.090729336
0.096599334
0.101164888
0.106056553
0.109317663
0.112904884
0.117144327
0.123014326
0.129210435
0.135406544
0.139319876
0.141276542
0.140950431
0.138341543
0.136710988
0.132471545
0.130188768
0.127905991
0.124318770
0.118448772
0.111600440
0.104099887
0.097903778
0.091707669
0.088446559
0.086489893
0.085837670
0.085837670
0.084533226
0.084859337
0.084859337
0.085185448
0.089751003
0.094316557
0.101164888
0.105404331
0.109643774
0.113230995
0.116818216
0.121383771
0.125623214
0.131493212
0.138341543
0.141928764
0.144537652
0.144211541
0.142254875
0.139645987
0.136710988
0.133123767
0.131493212
0.128232102
0.123014326
0.116492105
0.109317663
0.102143221
0.096599334
0.091055447
0.089751003
0.088120448
0.087468226
0.086489893
0.085185448
0.086163781
0.085837670
0.089424892
0.093012113
0.099208222
0.105404331
0.109969885
0.112578773
0.115839883
0.120079327
0.124644881
0.130188768
0.136710988
0.141928764
0.144863763
0.145515985
0.143885430
0.141276542
0.138993765
0.136058766
0.132797656
0.129862657
0.124970992
0.119100994
0.111926551
0.103121554
0.096925445
0.092359891
0.089098781
0.088120448
0.087142115
0.086163781
0.084533226
0.084533226
0.084859337
0.086489893
0.091381558
0.096599334
0.102795443
0.106708775
0.109643774
0.112904884
0.116818216
0.120731549
0.125949325
0.132145434
0.137037099
0.140950431
0.141928764
0.140298209
0.138015432
0.134428211
0.131819323
0.129536546
0.125623214
0.122035993
0.116492105
0.109317663
0.101490999
0.094642668
0.088772670
0.085185448
0.082250449
0.080946005
0.080619894
0.079641561
0.078989339
0.078663228
0.079967672
0.081924338
0.086816004
0.093012113
0.097577667
0.100838777
0.104425998
0.108013219
0.111926551
0.116818216
0.122688215
0.128558213
0.132471545
0.134754322
0.134102100
0.131819323
0.128558213
0.125623214
0.123340437
0.119753216
0.117144327
0.110948218
0.105078220
0.096273223
0.089098781
0.082902671
0.077684895
0.075402118
0.074423785
0.073445452
0.071814897
0.071488786
0.071162675
0.071162675
0.074097674
0.078663228
0.082902671
0.088772670
0.093338224
0.096273223
0.099860444
0.103121554
0.107360997
0.112904884
0.118448772
0.123340437
0.125949325
0.125623214
0.124318770
0.121383771
0.117796550
0.114535439
0.111926551
0.108013219
0.104099887
0.097577667
0.091055447
0.083881004
0.076380451
0.072141008
0.068227676
0.066271010
0.065292677
0.063662122
0.062357678
0.062031567
0.062357678
0.064314344
0.067901565
0.072793230
0.078337117
0.083228782
0.087142115
0.090403225
0.093664335
0.097903778
0.103447665
0.108339330
0.114535439
0.119427105
0.120405438
0.118448772
0.116165994
0.112904884
0.109643774
0.107034886
0.104099887
0.099860444
0.093990446
0.087468226
0.079641561
0.072467119
0.066271010
0.062357678
0.060074901
0.059422679
0.058444346
0.057466013
0.055835458
0.056161569
0.058118235
0.060074901
0.065292677
0.070836564
0.076054340
0.080619894
0.083881004
0.086489893
0.089751003
0.095294890
0.100838777
0.107034886
0.110948218
0.112578773
0.112904884
0.109317663
0.107687108
0.104099887
0.101164888
0.098229889
0.093990446
0.090077114
0.083881004
0.075402118
0.067901565
0.061379345
0.057139902
0.054857124
0.052574347
0.052574347
0.051269903
0.050617681
0.048987126
0.050943792
0.052248236
0.056487680
0.062357678
0.067575454
0.072467119
0.075728229
0.078989339
0.082576560
0.085837670
0.091381558
0.097903778
0.102469332
0.105404331
0.105730442
0.104752109
0.102143221
0.098556000
0.094968779
0.092033780
0.088446559
0.084859337
0.077684895
0.070510453
0.063662122
0.056161569
0.050291570
0.046704349
0.045726016
0.045073794
0.044421572
0.042791017
0.041812684
0.041812684
0.044095461
0.047682682
0.052900458
0.058444346
0.062031567
0.066271010
0.069206009
0.072467119
0.076054340
0.080946005
0.087142115
0.091707669
0.095294890
0.096925445
0.094968779
0.093338224
0.089424892
0.086816004
0.083228782
0.080619894
0.075728229
0.070510453
0.063009900
0.056487680
0.048008793
0.042138795
0.038877685
0.036921019
0.035290464
0.034964353
0.033986020
0.033007687
0.033333798
0.034312131
0.037573241
0.041160462
0.047356571
0.052248236
0.056813791
0.060727123
0.063336011
0.067249343
0.072793230
0.077684895
0.083554893
0.088772670
0.090729336
0.090403225
0.088446559
0.085185448
0.081924338
0.078663228
0.075728229
0.072793230
0.066923232
0.060727123
0.052574347
0.045726016
0.038551574
0.033333798
0.031703243
0.030398799
0.030072688
0.028116022
0.028442133
0.026811578
0.028116022
0.030398799
0.034312131
0.039529907
0.044747683
0.049639348
0.053878791
0.056487680
0.060074901
0.063988233
0.069206009
0.075402118
0.080619894
0.083228782
0.083228782
0.081272116
0.078337117
0.075076007
0.071814897
0.069206009
0.065944899
0.061379345
0.055183235
0.048661015
0.040834351
0.033333798
0.028768244
0.025507134
0.024528801
0.023550467
0.021593801
0.020941579
0.020615468
0.021593801
0.022898245
0.026485467
0.032355465
0.037573241
0.042464906
0.046052127
0.049965459
0.052574347
0.057139902
0.062357678
0.067901565
0.074097674
0.078337117
0.079641561
0.078663228
0.075728229
0.073445452
0.070510453
0.066597121
0.064314344
0.061053234
0.054531013
0.047356571
0.040182129
0.032355465
0.026159356
0.023224356
0.020941579
0.019637135
0.019637135
0.018332691
0.018332691
0.018006580
0.018658802
0.022898245
0.026811578
0.033333798
0.037899352
0.042138795
0.045073794
0.049313237
0.051922125
0.056813791
0.063336011
0.069206009
0.073771563
0.074749896
0.073771563
0.072467119
0.069858231
0.066597121
0.062683789
0.060401012
0.057139902
0.052248236
0.045726016
0.037573241
0.031051021
0.024528801
0.019963246
0.017028247
0.015723803
0.015071581
0.014093248
0.013114915
0.013767137
0.013767137
0.016049914
0.020615468
0.025181023
0.031377132
0.036594908
0.039856018
0.043117128
0.047030460
0.050943792
0.056487680
0.063009900
0.067901565
0.071488786
0.071814897
0.070184342
0.067249343
0.064640455
0.061053234
0.059096568
0.055509347
0.051596014
0.044747683
0.037899352
0.030072688
0.022898245
0.017680469
0.014419359
0.012462693
0.012136582
0.011484360
0.010506027
0.009201583
0.009853805
0.012136582
0.015723803
0.020615468
0.026485467
0.031377132
0.035616575
0.038551574
0.041160462
0.046052127
0.050617681
0.056813791
0.062683789
0.066271010
0.067575454
0.066597121
0.063662122
0.061053234
0.057792124
0.053878791
0.051269903
0.047682682
0.041812684
0.035942686
0.028442133
0.020615468
0.015071581
0.011484360
0.009201583
0.009201583
0.008549361
0.007571028
0.006592695
0.006918806
0.008549361
0.012462693
0.016702136
0.022246023
0.028442133
0.032029354
0.036268797
0.039856018
0.043443239
0.048334904
0.054857124
0.061379345
0.065944899
0.068879898
0.068879898
0.066923232
0.064640455
0.062031567
0.059748790
0.056487680
0.052900458
0.049313237
0.043769350
0.036594908
0.029746577
0.023876578
0.018984913
0.017028247
0.016376025
0.016376025
0.015723803
0.016376025
0.016702136
0.018332691
0.020289357
0.025507134
0.031377132
0.038225463
0.043117128
0.048008793
0.051269903
0.056161569
0.061053234
0.067575454
0.073445452
0.078989339
0.082902671
0.083881004
0.083228782
0.080619894
0.078011006
0.075728229
0.073119341
0.070836564
0.067901565
0.063009900
0.056487680
0.049313237
0.043117128
0.038225463
0.035942686
0.034964353
0.035616575
0.034964353
0.033986020
0.033986020
0.035290464
0.038551574
0.041486573
0.048008793
0.053878791
0.059422679
0.064314344
0.068227676
0.072793230
0.076706562
0.082250449
0.088772670
0.094316557
0.099534333
0.101817110
0.100512666
0.098882111
0.096925445
0.093338224
0.091055447
0.088772670
0.085185448
0.080619894
0.075076007
0.066597121
0.060074901
0.054857124
0.051269903
0.048987126
0.048987126
0.048987126
0.048661015
0.048334904
0.047682682
0.049965459
0.053878791
0.059422679
0.065618788
0.070836564
0.075402118
0.078989339
0.083554893
0.087794337
0.093012113
0.098882111
0.105404331
0.109643774
0.112904884
0.112252662
0.110948218
0.108665441
0.105404331
0.103121554
0.100186555
0.097251556
0.093012113
0.088120448
0.080946005
0.074097674
0.067575454
0.063988233
0.061705456
0.060727123
0.060727123
0.060727123
0.060401012
0.060727123
0.061379345
0.064640455
0.069858231
0.076054340
0.081924338
0.087468226
0.091055447
0.094642668
0.097903778
0.102795443
0.110295996
0.116165994
0.122035993
0.125297103
0.126275436
0.125297103
0.123340437
0.120405438
0.117144327
0.115839883
0.113883217
0.109317663
0.104099887
0.097251556
0.090077114
0.083554893
0.078989339
0.076054340
0.073771563
0.074423785
0.074749896
0.073445452
0.074097674
0.074423785
0.077032673
0.081598227
0.086489893
0.092686002
0.097903778
0.102795443
0.106056553
0.109643774
0.114209328
0.119753216
0.126601547
0.132145434
0.136384877
0.138341543
0.137037099
0.135406544
0.132145434
0.130514879
0.127253769
0.124644881
0.121709882
0.116818216
0.110295996
0.103447665
0.096599334
0.091055447
0.087468226
0.086163781
0.085837670
0.085837670
0.084859337
0.084859337
0.084859337
0.086816004
0.090077114
0.094968779
0.101164888
0.106382664
0.110948218
0.114535439
0.119100994
0.123014326
0.127905991
0.134102100
0.140298209
0.144537652
0.147146540
0.147146540
0.145842096
0.142907097
0.139319876
0.136384877
0.134428211
0.131493212
0.126275436
0.120405438
0.113230995
0.106382664
0.098882111
0.094968779
0.092033780
0.090729336
0.090729336
0.089098781
0.089098781
0.087794337
0.089424892
0.092359891
0.095947112
0.102143221
0.108013219
0.111926551
0.115513772
0.119100994
0.123014326
0.126275436
0.132145434
0.138341543
0.143559319
0.145842096
0.147146540
0.145189874
0.141928764
0.137689321
0.136058766
0.132471545
0.129862657
0.125623214
0.119427105
0.112904884
0.105078220
0.097903778
0.092359891
0.089098781
0.087794337
0.087142115
0.086163781
0.084859337
0.084859337
0.084533226
0.086163781
0.089751003
0.094316557
0.100186555
0.105404331
0.109317663
0.112252662
0.115513772
0.119100994
0.124318770
0.129862657
0.135732655
0.139645987
0.140624320
0.138993765
0.136710988
0.134102100
0.130188768
0.126275436
0.124644881
0.120079327
0.114861550
0.107360997
0.100186555
0.093012113
0.086816004
0.081598227
0.079641561
0.079315450
0.078337117
0.077684895
0.076706562
0.077358784
0.078011006
0.080619894
0.085185448
0.090077114
0.094968779
0.100186555
0.103121554
0.105730442
0.109317663
0.114209328
0.120079327
0.125297103
0.129536546
0.131167101
0.130514879
0.128884324
0.125949325
0.121709882
0.118774883
0.115839883
0.112578773
0.107360997
0.101164888
0.093664335
0.086163781
0.079967672
0.075076007
0.071814897
0.071162675
0.070510453
0.069532120
0.068879898
0.068553787
0.068879898
0.071162675
0.075402118
0.080619894
0.086163781
0.091055447
0.094968779
0.098229889
0.101490999
0.105404331
0.110948218
0.117144327
0.122362104
0.124970992
0.126275436
0.124318770
0.121383771
0.119100994
0.116165994
0.112578773
0.109969885
0.105404331
0.100186555
0.093012113
0.085837670
0.079641561
0.072467119
0.070836564
0.068553787
0.068227676
0.067249343
0.066597121
0.066923232
0.067575454
0.069206009
0.072793230
0.078011006
0.083554893
0.089098781
0.093012113
0.097251556
0.100186555
0.104425998
0.109317663
0.115187661
0.121709882
0.124318770
0.126275436
0.125949325
0.123340437
0.120079327
0.117144327
0.114535439
0.111274329
0.108013219
0.103121554
0.096599334
0.089751003
0.082250449
0.076054340
0.072793230
0.070836564
0.070510453
0.070184342
0.070184342
0.068879898
0.068553787
0.070184342
0.074097674
0.078337117
0.084207115
0.089751003
0.094968779
0.098882111
0.101164888
0.106056553
0.109317663
0.116165994
0.122035993
0.127579880
0.129210435
0.128558213
0.127579880
0.124318770
0.121383771
0.117796550
0.116165994
0.112578773
0.108013219
0.102143221
0.094316557
0.087468226
0.081598227
0.076054340
0.073445452
0.073119341
0.072141008
0.071162675
0.070510453
0.070510453
0.071162675
0.073771563
0.077358784
0.083881004
0.088772670
0.093990446
0.097903778
0.101490999
0.104752109
0.108991552
0.114535439
0.120731549
0.125297103
0.129210435
0.129862657
0.127905991
0.125297103
0.121709882
0.118774883
0.115839883
0.112252662
0.107687108
0.103121554
0.095947112
0.088120448
0.081924338
0.076054340
0.072793230
0.071488786
0.071488786
0.069858231
0.069858231
0.068227676
0.067901565
0.070184342
0.074423785
0.079641561
0.085185448
0.090077114
0.093990446
0.097577667
0.100838777
0.104425998
0.109317663
0.115839883
0.121057660
0.125297103
0.126927658
0.125623214
0.122688215
0.118774883
0.117144327
0.113230995
0.110948218
0.107034886
0.102143221
0.095294890
0.088446559
0.080946005
0.074423785
0.070510453
0.069206009
0.067575454
0.067249343
0.066597121
0.064966566
0.064966566
0.065944899
0.068227676
0.073445452
0.079315450
0.084207115
0.088772670
0.092359891
0.095294890
0.098556000
0.102469332
0.108339330
0.114535439
0.118448772
0.120731549
0.120405438
0.117796550
0.115187661
0.110622107
0.107687108
0.104752109
0.101817110
0.095947112
0.090403225
0.082902671
0.075402118
0.068227676
0.063336011
0.060401012
0.058444346
0.058444346
0.057466013
0.056813791
0.055835458
0.056487680
0.058444346
0.063009900
0.067575454
0.073445452
0.078011006
0.081598227
0.085185448
0.088120448
0.092033780
0.096599334
0.102469332
0.108013219
0.111600440
0.111926551
0.110622107
0.108013219
0.103773776
0.100838777
0.097903778
0.095294890
0.091707669
0.086489893
0.078989339
0.071162675
0.064314344
0.058770457
0.054531013
0.054204902
0.053226569
0.053226569
0.052574347
0.050617681
0.051596014
0.054204902
0.057139902
0.062683789
0.067901565
0.073771563
0.078011006
0.081272116
0.085185448
0.089098781
0.093338224
0.099208222
0.105078220
0.109317663
0.110948218
0.110295996
0.108013219
0.104099887
0.101490999
0.098882111
0.095621001
0.092359891
0.087794337
0.081272116
0.074423785
0.066923232
0.061053234
0.057792124
0.055835458
0.054204902
0.054204902
0.054204902
0.053226569
0.053878791
0.054531013
0.058118235
0.063009900
0.069206009
0.074423785
0.079315450
0.082576560
0.086816004
0.090729336
0.095947112
0.100838777
0.106382664
0.111926551
0.115187661
0.114861550
0.112904884
0.110295996
0.108339330
0.104752109
0.102143221
0.100186555
0.095947112
0.089424892
0.082576560
0.076380451
0.070184342
0.064640455
0.062031567
0.061705456
0.061379345
0.060401012
0.059422679
0.060074901
0.060074901
0.063009900
0.066923232
0.073119341
0.079315450
0.084207115
0.087468226
0.091707669
0.095621001
0.099534333
0.104752109
0.111274329
0.117470439
0.120405438
0.120731549
0.119100994
0.116818216
0.113883217
0.110622107
0.108339330
0.105404331
0.101490999
0.096273223
0.090077114
0.082576560
0.076054340
0.070510453
0.067575454
0.066923232
0.066923232
0.065944899
0.065944899
0.066271010
0.066597121
0.068553787
0.072793230
0.078663228
0.084207115
0.090077114
0.094968779
0.098882111
0.101490999
0.107034886
0.111926551
0.119100994
0.125623214
0.129210435
0.131493212
0.130514879
0.128558213
0.126601547
0.123340437
0.120731549
0.119100994
0.115187661
0.111600440
0.105404331
0.098882111
0.092359891
0.086489893
0.083228782
0.081924338
0.081272116
0.080619894
0.081924338
0.081272116
0.080946005
0.083554893
0.086489893
0.091707669
0.097903778
0.104099887
0.108665441
0.112578773
0.117470439
0.121057660
0.126275436
0.132471545
0.138341543
0.143233208
0.145515985
0.145515985
0.145189874
0.141928764
0.139645987
0.136710988
0.133123767
0.130840990
0.127253769
0.120731549
0.114535439
0.108013219
0.101490999
0.096925445
0.095294890
0.094316557
0.093990446
0.094968779
0.093990446
0.093990446
0.095621001
0.098229889
0.102143221
0.108013219
0.115187661
0.120405438
0.124644881
0.127905991
0.132797656
0.136710988
0.142580986
0.148450985
0.154647094
0.158886537
0.160190981
0.159212648
0.157255982
0.153668761
0.151059873
0.148777096
0.147146540
0.142907097
0.138015432
0.131819323
0.124970992
0.118448772
0.113883217
0.110622107
0.110295996
0.109643774
0.109317663
0.109643774
0.108665441
0.109643774
0.111926551
0.115839883
0.121383771
0.127253769
0.133449878
0.137037099
0.141276542
0.146168207
0.149429318
0.154973205
0.161495425
0.167365423
0.171930977
0.173887643
0.172257088
0.170952644
0.167691534
0.164756535
0.162799869
0.160517092
0.157582093
0.153016539
0.147472651
0.139972098
0.133123767
0.127579880
0.123340437
0.122688215
0.122688215
0.123340437
0.123666548
0.122688215
0.123340437
0.125623214
0.128232102
0.134102100
0.139972098
0.146168207
0.151385984
0.155299316
0.159864870
0.164104313
0.168995978
0.174539865
0.181062086
0.186605973
0.188236528
0.188562639
0.187910417
0.184975418
0.182040419
0.179757642
0.177148753
0.174539865
0.170626533
0.164756535
0.159212648
0.151712095
0.145515985
0.141602653
0.139319876
0.138341543
0.138667654
0.138015432
0.137363210
0.138015432
0.138993765
0.140624320
0.144537652
0.151059873
0.157582093
0.162799869
0.166713201
0.169974311
0.173887643
0.178453197
0.183670974
0.189867083
0.195084859
0.198998191
0.199650413
0.198672080
0.195410970
0.191823749
0.189867083
0.186279862
0.184649307
0.179757642
0.174865976
0.167691534
0.161169314
0.154647094
0.149429318
0.146168207
0.145189874
0.144863763
0.144863763
0.144537652
0.144537652
0.144537652
0.146494318
0.149755429
0.155299316
0.161821536
0.167039312
0.171604866
0.174865976
0.178453197
0.182366530
0.187258195
0.193454304
0.199324302
0.203889856
0.205194300
0.203563745
0.201933190
0.198345969
0.195084859
0.192802082
0.189214861
0.186605973
0.181714308
0.175844309
0.168343756
0.161495425
0.154973205
0.152364317
0.149755429
0.148450985
0.148450985
0.147472651
0.147472651
0.146820429
0.147798762
0.151385984
0.154973205
0.160190981
0.166060979
0.170626533
0.174213754
0.176822642
0.180735975
0.185953751
0.190845416
0.196389303
0.200954857
0.203563745
0.201607079
0.200302635
0.196715414
0.192802082
0.189540972
0.186932084
0.183670974
0.179105419
0.172583199
0.165082646
0.157908204
0.151712095
0.146168207
0.143559319
0.142580986
0.141928764
0.141928764
0.140624320
0.140624320
0.141276542
0.144211541
0.147798762
0.153342650
0.158886537
0.163778202
0.168343756
0.171604866
0.175192087
0.178779308
0.183670974
0.189540972
0.194758748
0.197693747
0.198019858
0.197693747
0.194432637
0.191171527
0.187910417
0.184649307
0.181714308
0.178127086
0.172583199
0.166387090
0.159212648
0.152364317
0.145842096
0.142580986
0.140950431
0.140624320
0.140624320
0.138993765
0.138015432
0.139319876
0.140298209
0.143885430
0.148450985
0.154320983
0.159864870
0.163452091
0.167691534
0.170626533
0.174213754
0.179431531
0.184323196
0.189867083
0.194432637
0.195084859
0.194106526
0.191823749
0.188236528
0.184975418
0.181062086
0.178453197
0.175192087
0.170300422
0.163452091
0.156603760
0.149755429
0.142907097
0.139972098
0.137689321
0.137037099
0.136710988
0.136058766
0.135732655
0.136058766
0.137037099
0.139972098
0.144863763
0.150733762
0.156277649
0.160517092
0.164430424
0.168669867
0.171930977
0.175844309
0.182366530
0.187584306
0.192802082
0.195410970
0.194758748
0.193454304
0.189867083
0.186279862
0.183018752
0.180409864
0.177800975
0.173887643
0.168017645
0.160843203
0.153668761
0.145842096
0.142254875
0.138341543
0.137689321
0.137363210
0.136710988
0.136384877
0.135406544
0.136384877
0.138341543
0.142254875
0.147472651
0.153994872
0.157908204
0.161821536
0.165082646
0.169648200
0.173235421
0.178453197
0.184975418
0.189867083
0.193128193
0.194106526
0.192475971
0.189867083
0.186279862
0.183344863
0.180083753
0.176822642
0.172257088
0.167365423
0.160843203
0.153994872
0.146820429
0.140950431
0.137689321
0.136710988
0.136384877
0.135732655
0.135080433
0.134754322
0.134754322
0.137363210
0.139972098
0.144537652
0.151385984
0.156603760
0.161495425
0.165082646
0.167691534
0.172257088
0.176170420
0.182040419
0.187584306
0.191497638
0.193454304
0.193454304
0.190519305
0.187584306
0.183997085
0.180735975
0.178779308
0.175518198
0.170952644
0.164756535
0.158234315
0.150407651
0.144863763
0.140624320
0.138993765
0.138015432
0.138341543
0.137363210
0.136710988
0.136058766
0.137689321
0.140298209
0.145515985
0.150407651
0.155299316
0.160517092
0.165082646
0.167365423
0.171604866
0.175518198
0.180083753
0.186279862
0.190845416
0.193780415
0.193454304
0.191171527
0.187584306
0.184323196
0.180409864
0.177474864
0.175192087
0.170300422
0.163778202
0.156603760
0.149755429
0.143233208
0.137363210
0.135406544
0.134428211
0.134428211
0.133123767
0.132797656
0.133449878
0.134102100
0.136058766
0.139972098
0.144863763
0.151385984
0.156603760
0.159864870
0.163452091
0.167039312
0.171604866
0.176170420
0.181062086
0.186932084
0.190519305
0.191171527
0.190193194
0.186932084
0.183997085
0.180735975
0.177474864
0.174539865
0.171278755
0.165734868
0.158560426
0.153016539
0.144211541
0.139645987
0.134754322
0.134428211
0.133775989
0.133449878
0.132471545
0.132145434
0.132145434
0.134428211
0.136384877
0.142254875
0.147146540
0.153016539
0.156929871
0.160843203
0.163778202
0.168017645
0.172257088
0.178779308
0.183997085
0.186932084
0.189867083
0.188236528
0.186279862
0.182366530
0.177800975
0.174539865
0.172257088
0.168669867
0.163778202
0.157255982
0.149755429
0.142580986
0.136710988
0.130840990
0.129862657
0.129210435
0.128232102
0.126927658
0.127579880
0.126601547
0.128232102
0.130188768
0.135406544
0.140624320
0.146494318
0.150733762
0.154647094
0.158560426
0.162147647
0.166060979
0.171604866
0.177474864
0.182040419
0.184649307
0.184649307
0.182692641
0.179757642
0.176822642
0.173887643
0.170626533
0.167365423
0.163125980
0.157908204
0.150733762
0.144211541
0.136710988
0.132797656
0.128558213
0.128884324
0.127905991
0.126927658
0.125949325
0.126601547
0.126927658
0.129210435
0.131819323
0.137689321
0.143885430
0.149429318
0.153016539
0.155951538
0.159864870
0.163452091
0.168343756
0.174539865
0.180409864
0.182692641
0.183997085
0.182366530
0.179431531
0.176170420
0.172583199
0.168669867
0.165734868
0.161495425
0.156277649
0.149429318
0.141928764
0.136058766
0.128558213
0.126275436
0.123666548
0.123992659
0.123014326
0.123014326
0.123340437
0.123666548
0.124970992
0.128232102
0.134102100
0.139972098
0.144211541
0.149755429
0.153016539
0.156277649
0.160190981
0.165082646
0.170300422
0.176496531
0.180409864
0.182040419
0.182366530
0.179431531
0.176496531
0.172583199
0.169648200
0.167365423
0.163452091
0.158886537
0.152364317
0.145515985
0.137689321
0.132145434
0.127579880
0.126275436
0.124970992
0.124644881
0.123666548
0.123340437
0.124318770
0.124970992
0.127579880
0.131819323
0.137363210
0.143885430
0.149103207
0.153668761
0.156603760
0.159538759
0.164430424
0.169974311
0.176170420
0.180735975
0.183018752
0.183997085
0.182366530
0.179757642
0.176496531
0.173235421
0.170300422
0.167365423
0.162799869
0.157582093
0.151385984
0.144537652
0.137689321
0.133123767
0.130188768
0.128884324
0.129862657
0.129210435
0.129862657
0.129536546
0.130840990
0.133449878
0.137689321
0.143885430
0.150407651
0.155625427
0.160190981
0.164756535
0.168343756
0.172909310
0.178127086
0.185627640
0.191171527
0.195737081
0.196389303
0.195410970
0.193454304
0.190845416
0.187910417
0.185627640
0.183670974
0.180735975
0.176170420
0.169974311
0.163778202
0.157255982
0.152038206
0.149103207
0.148450985
0.149755429
0.149103207
0.149103207
0.149755429
0.150081540
0.151385984
0.155951538
0.161169314
0.167691534
0.173561532
0.179105419
0.182366530
0.186279862
0.190845416
0.196715414
0.202259301
0.208781521
0.213020965
0.214977631
0.214651520
0.213020965
0.209759854
0.206498744
0.203563745
0.200954857
0.197693747
0.194106526
0.187584306
0.181714308
0.175192087
0.168343756
0.164104313
0.162799869
0.162799869
0.162473758
0.162799869
0.162473758
0.163452091
0.163778202
0.166713201
0.172257088
0.178779308
0.183997085
0.189540972
0.193128193
0.198345969
0.201933190
0.206172633
0.212368743
0.218564852
0.222804295
0.226391516
0.226391516
0.225087072
0.222152073
0.218890963
0.215955964
0.213020965
0.210738188
0.206824855
0.202259301
0.195084859
0.187910417
0.182692641
0.176822642
0.174213754
0.173887643
0.174213754
0.173887643
0.173561532
0.172909310
0.173561532
0.175844309
0.180083753
0.185953751
0.191497638
0.197367636
0.201280968
0.204542078
0.208455410
0.213673187
0.218238741
0.224760961
0.230304848
0.232913736
0.234218180
0.232587625
0.230630959
0.227043738
0.223456517
0.220847629
0.217260408
0.213999298
0.209759854
0.202911523
0.195737081
0.188888750
0.183018752
0.180735975
0.178779308
0.179105419
0.178453197
0.178127086
0.178453197
0.178779308
0.180083753
0.184649307
0.188888750
0.195084859
0.200302635
0.205194300
0.208781521
0.213673187
0.216282075
0.221173740
0.227043738
0.232913736
0.236827068
0.239762067
0.238783734
0.236174846
0.233565958
0.229978737
0.227369849
0.224434850
0.221499851
0.217260408
0.211064299
0.204868189
0.197367636
0.191497638
0.187910417
0.185627640
0.185301529
0.185627640
0.185301529
0.184649307
0.185301529
0.185953751
0.188236528
0.193128193
0.199324302
0.204868189
0.210412076
0.214651520
0.217586519
0.221499851
0.226717627
0.231935403
0.237153179
0.243349289
0.245632066
0.245632066
0.243023178
0.240414289
0.237479290
0.233239847
0.230957070
0.227369849
0.224108739
0.218238741
0.211064299
0.203563745
0.197367636
0.192149860
0.189214861
0.188888750
0.188888750
0.188888750
0.187584306
0.188236528
0.189540972
0.191497638
0.195737081
0.201280968
0.206498744
0.211064299
0.215303742
0.219217074
0.223782628
0.227369849
0.232587625
0.238457623
0.243349289
0.247262621
0.248567065
0.246936510
0.244327622
0.240414289
0.237153179
0.233565958
0.231609292
0.228348182
0.223130406
0.216934297
0.209759854
0.202911523
0.197367636
0.193780415
0.192475971
0.192149860
0.192475971
0.191171527
0.189867083
0.190845416
0.191823749
0.195410970
0.199324302
0.204868189
0.210412076
0.215629853
0.218890963
0.222804295
0.226065405
0.230957070
0.235848735
0.241392622
0.245632066
0.246610399
0.245958177
0.243675400
0.240088178
0.236827068
0.232587625
0.229978737
0.226391516
0.220521518
0.214977631
0.208455410
0.200628746
0.194106526
0.190193194
0.187910417
0.186605973
0.187258195
0.186279862
0.185627640
0.185627640
0.186605973
0.188888750
0.194106526
0.200302635
0.205520411
0.210412076
0.213347076
0.217586519
0.220195407
0.225413183
0.230630959
0.235848735
0.241066511
0.243349289
0.242370956
0.241066511
0.238457623
0.234870402
0.231935403
0.228348182
0.225413183
0.221173740
0.215955964
0.208129299
0.201607079
0.194758748
0.189867083
0.186932084
0.184975418
0.184975418
0.184975418
0.183670974
0.183344863
0.183997085
0.185627640
0.189540972
0.194758748
0.200302635
0.206498744
0.210085965
0.213020965
0.216608186
0.220195407
0.225087072
0.230957070
0.236827068
0.239762067
0.241066511
0.239109845
0.236174846
0.232913736
0.228674293
0.225739294
0.222804295
0.218564852
0.213673187
0.207150966
0.198998191
0.192149860
0.186605973
0.183344863
0.180735975
0.179431531
0.180083753
0.179431531
0.178453197
0.178779308
0.179757642
0.183670974
0.188236528
0.193454304
0.199324302
0.203889856
0.206824855
0.210412076
0.213999298
0.218238741
0.223456517
0.229000404
0.231935403
0.234218180
0.232913736
0.231609292
0.227695960
0.224108739
0.219869296
0.216282075
0.213347076
0.208781521
0.203237634
0.195084859
0.188562639
0.182692641
0.177474864
0.175192087
0.173887643
0.174213754
0.173561532
0.172583199
0.173235421
0.173887643
0.176822642
0.180409864
0.185953751
0.191497638
0.196063192
0.200628746
0.203563745
0.207150966
0.210412076
0.216282075
0.222478184
0.226717627
0.229326515
0.229652626
0.228022071
0.223782628
0.220521518
0.216608186
0.213347076
0.210085965
0.206172633
0.200302635
0.193128193
0.185627640
0.179105419
0.174213754
0.171604866
0.169322089
0.168995978
0.168995978
0.169322089
0.168669867
0.169648200
0.171278755
0.175844309
0.180409864
0.186605973
0.191823749
0.196389303
0.199976524
0.203237634
0.206824855
0.211390410
0.216934297
0.222804295
0.226391516
0.227043738
0.226065405
0.222478184
0.219217074
0.215629853
0.212694854
0.209107632
0.205194300
0.200302635
0.194106526
0.186605973
0.179757642
0.174213754
0.169974311
0.168995978
0.168017645
0.168343756
0.167691534
0.167691534
0.166387090
0.168669867
0.170952644
0.176822642
0.182366530
0.187910417
0.192802082
0.197041525
0.199650413
0.203563745
0.207803188
0.213347076
0.218890963
0.223130406
0.224760961
0.224760961
0.220521518
0.217586519
0.214325409
0.211064299
0.207477077
0.204542078
0.199976524
0.193454304
0.186279862
0.179105419
0.171604866
0.167365423
0.165082646
0.164104313
0.163778202
0.163778202
0.163125980
0.163452091
0.163778202
0.167039312
0.170952644
0.176496531
0.182040419
0.187910417
0.191497638
0.194758748
0.197693747
0.201607079
0.208455410
0.214325409
0.217912630
0.220847629
0.221173740
0.218890963
0.215629853
0.212368743
0.209107632
0.205846522
0.202585412
0.198672080
0.194106526
0.186279862
0.179757642
0.172583199
0.168017645
0.164430424
0.164104313
0.162799869
0.162799869
0.162799869
0.162147647
0.162799869
0.165082646
0.167691534
0.172909310
0.180083753
0.184323196
0.188236528
0.191497638
0.194432637
0.199324302
0.203563745
0.208781521
0.213999298
0.217912630
0.218564852
0.216608186
0.214325409
0.210085965
0.206172633
0.202911523
0.199650413
0.194758748
0.190193194
0.183670974
0.177148753
0.168995978
0.163452091
0.158886537
0.157255982
0.157582093
0.156929871
0.156603760
0.155299316
0.155625427
0.156603760
0.160517092
0.164756535
0.170952644
0.176170420
0.179431531
0.183344863
0.187584306
0.190519305
0.195084859
0.201280968
0.205846522
0.210085965
0.212042632
0.211064299
0.208455410
0.204868189
0.200954857
0.197041525
0.194106526
0.191497638
0.186932084
0.180409864
0.172909310
0.166060979
0.158234315
0.155299316
0.152038206
0.151712095
0.151059873
0.150733762
0.150407651
0.149755429
0.151059873
0.152364317
0.156277649
0.161821536
0.168995978
0.172909310
0.176822642
0.179757642
0.183670974
0.187584306
0.193128193
0.198019858
0.202911523
0.205194300
0.205194300
0.202911523
0.199976524
0.195737081
0.192802082
0.189540972
0.186605973
0.182692641
0.176496531
0.169322089
0.161821536
0.154647094
0.149103207
0.147472651
0.146494318
0.145515985
0.145189874
0.145842096
0.145189874
0.146168207
0.147798762
0.152690428
0.156929871
0.163452091
0.168343756
0.172909310
0.175844309
0.179757642
0.183670974
0.188562639
0.194432637
0.198998191
0.203563745
0.204215967
0.202259301
0.199976524
0.196063192
0.192802082
0.189540972
0.185627640
0.182366530
0.177474864
0.171278755
0.163452091
0.156277649
0.151059873
0.146820429
0.145842096
0.144863763
0.146168207
0.144537652
0.143885430
0.144863763
0.146168207
0.149429318
0.154647094
0.160843203
0.165734868
0.171278755
0.174865976
0.177474864
0.181388197
0.186605973
0.191823749
0.198345969
0.202585412
0.204868189
0.203563745
0.201607079
0.198345969
0.194106526
0.191171527
0.188236528
0.184975418
0.180735975
0.174865976
0.167691534
0.161169314
0.154973205
0.150733762
0.148450985
0.148777096
0.147798762
0.148450985
0.148777096
0.149429318
0.150733762
0.153668761
0.158560426
0.164104313
0.170952644
0.176496531
0.180409864
0.184323196
0.188888750
0.193454304
0.199324302
0.204868189
0.210412076
0.213673187
0.214977631
0.214325409
0.210412076
0.207803188
0.204215967
0.201933190
0.199324302
0.195737081
0.191823749
0.184649307
0.178453197
0.172257088
0.168017645
0.166387090
0.165734868
0.165082646
0.166387090
0.166713201
0.166060979
0.167039312
0.170626533
0.174539865
0.180083753
0.186932084
0.191497638
0.196715414
0.201280968
0.204868189
0.209759854
0.213673187
0.220195407
0.226717627
0.229978737
0.231935403
0.231283181
0.228348182
0.225739294
0.222478184
0.219543185
0.217260408
0.213999298
0.209759854
0.202911523
0.196389303
0.190193194
0.184975418
0.181062086
0.180409864
0.180409864
0.181062086
0.180735975
0.180735975
0.182040419
0.184323196
0.187910417
0.192475971
0.198998191
0.205194300
0.210412076
0.213673187
0.217912630
0.221499851
0.226065405
0.232261514
0.238131512
0.243349289
0.245305955
0.246610399
0.242697067
0.239435956
0.236500957
0.232913736
0.231283181
0.227695960
0.223782628
0.218564852
0.211716521
0.205520411
0.198998191
0.195410970
0.193454304
0.194106526
0.194106526
0.194432637
0.193454304
0.194758748
0.196063192
0.198019858
0.203237634
0.208455410
0.214977631
0.220847629
0.224760961
0.228348182
0.231935403
0.236174846
0.242044845
0.247262621
0.252806508
0.257045951
0.256719840
0.254763174
0.252806508
0.249219287
0.245632066
0.242697067
0.240414289
0.237153179
0.230957070
0.224434850
0.217586519
0.211716521
0.206824855
0.204868189
0.202911523
0.203563745
0.203237634
0.202911523
0.203563745
0.204868189
0.207150966
0.210738188
0.216934297
0.223130406
0.229000404
0.232913736
0.236500957
0.240414289
0.244653733
0.249219287
0.254763174
0.260307061
0.264546504
0.265524837
0.264220393
0.262915949
0.259328728
0.255415396
0.252806508
0.249545398
0.246610399
0.242044845
0.235522624
0.229000404
0.222804295
0.216934297
0.213673187
0.212694854
0.211716521
0.212694854
0.212042632
0.212042632
0.212368743
0.213673187
0.217586519
0.222152073
0.228022071
0.233239847
0.238131512
0.242370956
0.245305955
0.248893176
0.252480397
0.258350395
0.264220393
0.269112058
0.271068724
0.270090391
0.267481503
0.263894282
0.260633172
0.256719840
0.253784841
0.250197620
0.246284288
0.240088178
0.233565958
0.226065405
0.219217074
0.214651520
0.212694854
0.212368743
0.212368743
0.212368743
0.211390410
0.212042632
0.212694854
0.214977631
0.218890963
0.225413183
0.230630959
0.235522624
0.239435956
0.242044845
0.246284288
0.250197620
0.255741507
0.260959283
0.265198726
0.268459836
0.267807614
0.266177059
0.263242060
0.259654839
0.255741507
0.253132619
0.248893176
0.244653733
0.240088178
0.231935403
0.225413183
0.218890963
0.213347076
0.209759854
0.209107632
0.208781521
0.209433743
0.209433743
0.207803188
0.208781521
0.210412076
0.213673187
0.219217074
0.224108739
0.229652626
0.232913736
0.236500957
0.240088178
0.243349289
0.247588732
0.252480397
0.258350395
0.261285394
0.262915949
0.261611505
0.257698173
0.253458730
0.250197620
0.246284288
0.243349289
0.238457623
0.233892069
0.226391516
0.218890963
0.211716521
0.206172633
0.200954857
0.200954857
0.198672080
0.198672080
0.198345969
0.198019858
0.198345969
0.199324302
0.201933190
0.207150966
0.212694854
0.217586519
0.222478184
0.226717627
0.229978737
0.233565958
0.236827068
0.242370956
0.247588732
0.251502064
0.253132619
0.253458730
0.250197620
0.246610399
0.242370956
0.239109845
0.235196513
0.232261514
0.227043738
0.221173740
0.214325409
0.207477077
0.200302635
0.195737081
0.193454304
0.192475971
0.192802082
0.193128193
0.192802082
0.191497638
0.192802082
0.195737081
0.200302635
0.204868189
0.210412076
0.214325409
0.219217074
0.223130406
0.225739294
0.229652626
0.234544291
0.240088178
0.245305955
0.247262621
0.247262621
0.245305955
0.241718734
0.238131512
0.234544291
0.230957070
0.227695960
0.224434850
0.217912630
0.211064299
0.203563745
0.197041525
0.192149860
0.188236528
0.187258195
0.186605973
0.186605973
0.186605973
0.186605973
0.186279862
0.187910417
0.191497638
0.197041525
0.202259301
0.208781521
0.211716521
0.214977631
0.218564852
0.222804295
0.227695960
0.232587625
0.237153179
0.240740400
0.241718734
0.240740400
0.237805401
0.234218180
0.229978737
0.226391516
0.223130406
0.219869296
0.214977631
0.207803188
0.201280968
0.193128193
0.188562639
0.183344863
0.182040419
0.181714308
0.182366530
0.182692641
0.181062086
0.182040419
0.183018752
0.185627640
0.190519305
0.195410970
0.201280968
0.205846522
0.209759854
0.212368743
0.216282075
0.220195407
0.224434850
0.230957070
0.234544291
0.236500957
0.235848735
0.232913736
0.228674293
0.225087072
0.221499851
0.218564852
0.214325409
0.209759854
0.203563745
0.196715414
0.189214861
0.182366530
0.177474864
0.174539865
0.173887643
0.174539865
0.174213754
0.173235421
0.173561532
0.174213754
0.176496531
0.180083753
0.185953751
0.191497638
0.196715414
0.200302635
0.203889856
0.207477077
0.211716521
0.216608186
0.221499851
0.226065405
0.229000404
0.229000404
0.227369849
0.224108739
0.219869296
0.215303742
0.213020965
0.208781521
0.204868189
0.199324302
0.193128193
0.184975418
0.178453197
0.172257088
0.169322089
0.168343756
0.168343756
0.168343756
0.168343756
0.167691534
0.168669867
0.169974311
0.172583199
0.177800975
0.183997085
0.189540972
0.193454304
0.196715414
0.199976524
0.204542078
0.207803188
0.213020965
0.218890963
0.221825962
0.222478184
0.221499851
0.219217074
0.215303742
0.210412076
0.207477077
0.203237634
0.200628746
0.195084859
0.188888750
0.180735975
0.174539865
0.167691534
0.164430424
0.161821536
0.162147647
0.161821536
0.162147647
0.160843203
0.161169314
0.162147647
0.164756535
0.169974311
0.175844309
0.181388197
0.185301529
0.188562639
0.192802082
0.195410970
0.199976524
0.205520411
0.210085965
0.213999298
0.216282075
0.215629853
0.213347076
0.209107632
0.205194300
0.201933190
0.198019858
0.194758748
0.189867083
0.183670974
0.175844309
0.168343756
0.162799869
0.158234315
0.155625427
0.155625427
0.155299316
0.155299316
0.154973205
0.155625427
0.155951538
0.158234315
0.162799869
0.167691534
0.173235421
0.178127086
0.182040419
0.185627640
0.188888750
0.192475971
0.197041525
0.202585412
0.207803188
0.209759854
0.210085965
0.208455410
0.205194300
0.201933190
0.197693747
0.193780415
0.191171527
0.186932084
0.180083753
0.173887643
0.166713201
0.158886537
0.153342650
0.151059873
0.149755429
0.150407651
0.149429318
0.150081540
0.149429318
0.150407651
0.151385984
0.154320983
0.159212648
0.166060979
0.171278755
0.175844309
0.179757642
0.182366530
0.186279862
0.191171527
0.196063192
0.200628746
0.204215967
0.206498744
0.204868189
0.201933190
0.198019858
0.194758748
0.190519305
0.187258195
0.183997085
0.179105419
0.173235421
0.166060979
0.158560426
0.152690428
0.149755429
0.148124873
0.147472651
0.148450985
0.148450985
0.149103207
0.148777096
0.150081540
0.153016539
0.158234315
0.163125980
0.169648200
0.174539865
0.176822642
0.181062086
0.184649307
0.188888750
0.193454304
0.199650413
0.203563745
0.205846522
0.205194300
0.203237634
0.198998191
0.195084859
0.191497638
0.187910417
0.184323196
0.180083753
0.173887643
0.166387090
0.159538759
0.153016539
0.148450985
0.146168207
0.145189874
0.145515985
0.145515985
0.145515985
0.144863763
0.146168207
0.148124873
0.153016539
0.157582093
0.164430424
0.168669867
0.173561532
0.176496531
0.180735975
0.184323196
0.188562639
0.194758748
0.198998191
0.201933190
0.202259301
0.200954857
0.197693747
0.193128193
0.189867083
0.184975418
0.183670974
0.179431531
0.172909310
0.166713201
0.159864870
0.152690428
0.146820429
0.143885430
0.142907097
0.143233208
0.142907097
0.142907097
0.143233208
0.143559319
0.146168207
0.149429318
0.154647094
0.159212648
0.164756535
0.168995978
0.172257088
0.175518198
0.179431531
0.183670974
0.188888750
0.194106526
0.198672080
0.199650413
0.198345969
0.194758748
0.191497638
0.187910417
0.184649307
0.180735975
0.177148753
0.172257088
0.165408757
0.158886537
0.151712095
0.145515985
0.141276542
0.138993765
0.139319876
0.139972098
0.140298209
0.139972098
0.140298209
0.141928764
0.145189874
0.150407651
0.156277649
0.162473758
0.167039312
0.171278755
0.175192087
0.178453197
0.183018752
0.187910417
0.194106526
0.198998191
0.201280968
0.201280968
0.198998191
0.196715414
0.192802082
0.188236528
0.186605973
0.182366530
0.178453197
0.173887643
0.167039312
0.159864870
0.153668761
0.150407651
0.148124873
0.148777096
0.149429318
0.149755429
0.150081540
0.150733762
0.151385984
0.155625427
0.159864870
0.165408757
0.172257088
0.177474864
0.182040419
0.185301529
0.189214861
0.193128193
0.198998191
0.204868189
0.209433743
0.213347076
0.214325409
0.213020965
0.210085965
0.206498744
0.202585412
0.199976524
0.197041525
0.193454304
0.189540972
0.182692641
0.175518198
0.168995978
0.163452091
0.161495425
0.159864870
0.160843203
0.161169314
0.161495425
0.161169314
0.162799869
0.164756535
0.168669867
0.173887643
0.179757642
0.185953751
0.189867083
0.194758748
0.198345969
0.202911523
0.207477077
0.212694854
0.218564852
0.222152073
0.224108739
0.222804295
0.219869296
0.217260408
0.213020965
0.209759854
0.207477077
0.204215967
0.199324302
0.193454304
0.186932084
0.179757642
0.173235421
0.170626533
0.168995978
0.169648200
0.170626533
0.170626533
0.170952644
0.172583199
0.173561532
0.176170420
0.182040419
0.186932084
0.193128193
0.198672080
0.202259301
0.204868189
0.209433743
0.214325409
0.219217074
0.225087072
0.228348182
0.231283181
0.230957070
0.229978737
0.226391516
0.222478184
0.219217074
0.216608186
0.212694854
0.209433743
0.203563745
0.197041525
0.189540972
0.183670974
0.180083753
0.177148753
0.176496531
0.176822642
0.178127086
0.177800975
0.178127086
0.179105419
0.181062086
0.185301529
0.190845416
0.197693747
0.203563745
0.206172633
0.210412076
0.213673187
0.218238741
0.223130406
0.229000404
0.233239847
0.236827068
0.237479290
0.235522624
0.232587625
0.228348182
0.224434850
0.221173740
0.219217074
0.214651520
0.209759854
0.203563745
0.196389303
0.189214861
0.183997085
0.181062086
0.180735975
0.180735975
0.181062086
0.181388197
0.181062086
0.182692641
0.183997085
0.187584306
0.192475971
0.199650413
0.204542078
0.209433743
0.212694854
0.215629853
0.219543185
0.223782628
0.229978737
0.234544291
0.238457623
0.240088178
0.238131512
0.236174846
0.232913736
0.229000404
0.226065405
0.221499851
0.218238741
0.213020965
0.207150966
0.200628746
0.193454304
0.187584306
0.183344863
0.180735975
0.181062086
0.181062086
0.181062086
0.181062086
0.180735975
0.182040419
0.184975418
0.188888750
0.194106526
0.200628746
0.205846522
0.208781521
0.212368743
0.215955964
0.220521518
0.225413183
0.229652626
0.234218180
0.236827068
0.235848735
0.233892069
0.230630959
0.225739294
0.221499851
0.218238741
0.214977631
0.210738188
0.204542078
0.197367636
0.190845416
0.183997085
0.179757642
0.176496531
0.175844309
0.176822642
0.176822642
0.176496531
0.176822642
0.177148753
0.179431531
0.183670974
0.188236528
0.193780415
0.198998191
0.202911523
0.205846522
0.208781521
0.212368743
0.216934297
0.222152073
0.226391516
0.230304848
0.229326515
0.227695960
0.223782628
0.220521518
0.215629853
0.212368743
0.209433743
0.205846522
0.199324302
0.192802082
0.184975418
0.177148753
0.171930977
0.168017645
0.166387090
0.166713201
0.166713201
0.166387090
0.165408757
0.165734868
0.167691534
0.170626533
0.174213754
0.180735975
0.185301529
0.189540972
0.193780415
0.196715414
0.199976524
0.204868189
0.209433743
0.214651520
0.217912630
0.218890963
0.217586519
0.214651520
0.211390410
0.206498744
0.203237634
0.199650413
0.196063192
0.191171527
0.184975418
0.177474864
0.170300422
0.164104313
0.159538759
0.157908204
0.157582093
0.157582093
0.157908204
0.157582093
0.156603760
0.158886537
0.161495425
0.165734868
0.170626533
0.176170420
0.181388197
0.184649307
0.186932084
0.190519305
0.195410970
0.200302635
0.204868189
0.208781521
0.211716521
0.211064299
0.208129299
0.205520411
0.200628746
0.196715414
0.193454304
0.189540972
0.184975418
0.178779308
0.171604866
0.165082646
0.157908204
0.153016539
0.149755429
0.149429318
0.148777096
0.149755429
0.149429318
0.149755429
0.150081540
0.152364317
0.155951538
0.161169314
0.167365423
0.171930977
0.176496531
0.179757642
0.183997085
0.187258195
0.191171527
0.196389303
0.200628746
0.204215967
0.204542078
0.202585412
0.198998191
0.194758748
0.190193194
0.186932084
0.183997085
0.179757642
0.173235421
0.166387090
0.159212648
0.151385984
0.145515985
0.142254875
0.140950431
0.140950431
0.141602653
0.140298209
0.140624320
0.141928764
0.142580986
0.146168207
0.151059873
0.155951538
0.162147647
0.166060979
0.168995978
0.171930977
0.174865976
0.179757642
0.184323196
0.189867083
0.192802082
0.194758748
0.192475971
0.189214861
0.185953751
0.181388197
0.177800975
0.174213754
0.169974311
0.165408757
0.157908204
0.151712095
0.143559319
0.137689321
0.133775989
0.131167101
0.130514879
0.131819323
0.130514879
0.129536546
0.129536546
0.130514879
0.134428211
0.137037099
0.143559319
0.149429318
0.153668761
0.157908204
0.160517092
0.163452091
0.167691534
0.172257088
0.177800975
0.181062086
0.183018752
0.183344863
0.180083753
0.176170420
0.171930977
0.166713201
0.163452091
0.161169314
0.154973205
0.150081540
0.142907097
0.136058766
0.128558213
0.123014326
0.121383771
0.120079327
0.121057660
0.120405438
0.121057660
0.120731549
0.121057660
0.123014326
0.126927658
0.131493212
0.137037099
0.142254875
0.145515985
0.149103207
0.151385984
0.155951538
0.159538759
0.164104313
0.169648200
0.172257088
0.172257088
0.170952644
0.167365423
0.162799869
0.158886537
0.154647094
0.150733762
0.147146540
0.140950431
0.133775989
0.126927658
0.119427105
0.112252662
0.108991552
0.108013219
0.107360997
0.108013219
0.107687108
0.107034886
0.108013219
0.108339330
0.111926551
0.116492105
0.122362104
0.127905991
0.131819323
0.135732655
0.138341543
0.142254875
0.146820429
0.152038206
0.157255982
0.160843203
0.160843203
0.160190981
0.156929871
0.153016539
0.149103207
0.145189874
0.141928764
0.137363210
0.132797656
0.126275436
0.118774883
0.110948218
0.105404331
0.101164888
0.098882111
0.098556000
0.098229889
0.099208222
0.098556000
0.098882111
0.100186555
0.102795443
0.106382664
0.111600440
0.117470439
0.122688215
0.126275436
0.129536546
0.131819323
0.135732655
0.140624320
0.145515985
0.149103207
0.152038206
0.151385984
0.148450985
0.144537652
0.140624320
0.136384877
0.132145434
0.129536546
0.123666548
0.118774883
0.110948218
0.103773776
0.096599334
0.091381558
0.088772670
0.087794337
0.087142115
0.087142115
0.086816004
0.087794337
0.087468226
0.089751003
0.093338224
0.097577667
0.104099887
0.109317663
0.113230995
0.116818216
0.119753216
0.122688215
0.127579880
0.132471545
0.138015432
0.139972098
0.140950431
0.138015432
0.134754322
0.130188768
0.125623214
0.123014326
0.119100994
0.115187661
0.109317663
0.102795443
0.094968779
0.087468226
0.081924338
0.078663228
0.077358784
0.077358784
0.077684895
0.078011006
0.077684895
0.078011006
0.079641561
0.083228782
0.088120448
0.093990446
0.098882111
0.103121554
0.106382664
0.109969885
0.113230995
0.117470439
0.121383771
0.126275436
0.130188768
0.131493212
0.130188768
0.127905991
0.123340437
0.119753216
0.115187661
0.111274329
0.107687108
0.102795443
0.096273223
0.088446559
0.080946005
0.074749896
0.070184342
0.068553787
0.068879898
0.067249343
0.067575454
0.067575454
0.067249343
0.068553787
0.071488786
0.075728229
0.081598227
0.087142115
0.092033780
0.096273223
0.098882111
0.103447665
0.106382664
0.112252662
0.117144327
0.121057660
0.123666548
0.123340437
0.120731549
0.117470439
0.112252662
0.108991552
0.104425998
0.101490999
0.096273223
0.090729336
0.082902671
0.075402118
0.068227676
0.063662122
0.061053234
0.059422679
0.060401012
0.060074901
0.060074901
0.061053234
0.060727123
0.063336011
0.067901565
0.072141008
0.078011006
0.082902671
0.087142115
0.090403225
0.093990446
0.098229889
0.102795443
0.107360997
0.111926551
0.114535439
0.114861550
0.113557106
0.109643774
0.106056553
0.101817110
0.097903778
0.093664335
0.090077114
0.084859337
0.078011006
0.071162675
0.063009900
0.057466013
0.053878791
0.053226569
0.052900458
0.053226569
0.053878791
0.052900458
0.054857124
0.056161569
0.059748790
0.064640455
0.070510453
0.076054340
0.081272116
0.084859337
0.088446559
0.092686002
0.096925445
0.102795443
0.107687108
0.112252662
0.113230995
0.112904884
0.110295996
0.105730442
0.102469332
0.098882111
0.095621001
0.092686002
0.089098781
0.082902671
0.075402118
0.068553787
0.063336011
0.058770457
0.057139902
0.058118235
0.059422679
0.059422679
0.060074901
0.060727123
0.062683789
0.066597121
0.070510453
0.076706562
0.082902671
0.088446559
0.093012113
0.096273223
0.100512666
0.104425998
0.109969885
0.115513772
0.119753216
0.123014326
0.123340437
0.121709882
0.118774883
0.113883217
0.111274329
0.108013219
0.104425998
0.100512666
0.095621001
0.088772670
0.081924338
0.076054340
0.070836564
0.068879898
0.068553787
0.069206009
0.070510453
0.069532120
0.070510453
0.072141008
0.073445452
0.077358784
0.083881004
0.090729336
0.096273223
0.099860444
0.104425998
0.108991552
0.113230995
0.118448772
0.123340437
0.128884324
0.132145434
0.133775989
0.131493212
0.128884324
0.125297103
0.121057660
0.118122661
0.115187661
0.111926551
0.106708775
0.099534333
0.093338224
0.086489893
0.081598227
0.078011006
0.076706562
0.077358784
0.078989339
0.079315450
0.079315450
0.080619894
0.082250449
0.086163781
0.091055447
0.096925445
0.103121554
0.107034886
0.111274329
0.115513772
0.119753216
0.123014326
0.128232102
0.134102100
0.138015432
0.139972098
0.138993765
0.136058766
0.131819323
0.128232102
0.124644881
0.121383771
0.118448772
0.113883217
0.107034886
0.100512666
0.093664335
0.087794337
0.084207115
0.082250449
0.082250449
0.082576560
0.082250449
0.082902671
0.084207115
0.084533226
0.088120448
0.092686002
0.097577667
0.104099887
0.109317663
0.113230995
0.117144327
0.120731549
0.124970992
0.130514879
0.135080433
0.139319876
0.142254875
0.142254875
0.139319876
0.136058766
0.131819323
0.127905991
0.124970992
0.122035993
0.118122661
0.112252662
0.105404331
0.098229889
0.092033780
0.087142115
0.084533226
0.084533226
0.085511559
0.085511559
0.085837670
0.086163781
0.087142115
0.089424892
0.093664335
0.099208222
0.105404331
0.110622107
0.114861550
0.119100994
0.121709882
0.124970992
0.129862657
0.135732655
0.141602653
0.142907097
0.144211541
0.142907097
0.139319876
0.135732655
0.131167101
0.128558213
0.124318770
0.120405438
0.115513772
0.108991552
0.101164888
0.094316557
0.088446559
0.085185448
0.083881004
0.083554893
0.084207115
0.083881004
0.083881004
0.085185448
0.086489893
0.090077114
0.094316557
0.100838777
0.106056553
0.110948218
0.114535439
0.118122661
0.121709882
0.125949325
0.131167101
0.135406544
0.140298209
0.141602653
0.140298209
0.137363210
0.133775989
0.129210435
0.125297103
0.122035993
0.118448772
0.114209328
0.107360997
0.100186555
0.093012113
0.087142115
0.082250449
0.079967672
0.079641561
0.081598227
0.081598227
0.081598227
0.081924338
0.082250449
0.084859337
0.089751003
0.094968779
0.101164888
0.106056553
0.109643774
0.112904884
0.116818216
0.121057660
0.125623214
0.130188768
0.133775989
0.136384877
0.135406544
0.133449878
0.130188768
0.124970992
0.121383771
0.117796550
0.113557106
0.109969885
0.104099887
0.096925445
0.089424892
0.082250449
0.077032673
0.074423785
0.073119341
0.073771563
0.074749896
0.073771563
0.073445452
0.074097674
0.076706562
0.079641561
0.085185448
0.090403225
0.095294890
0.100186555
0.103447665
0.106708775
0.109643774
0.114209328
0.120079327
0.124644881
0.127905991
0.128232102
0.126601547
0.122688215
0.118774883
0.114209328
0.110295996
0.106382664
0.103447665
0.098229889
0.091707669
0.084533226
0.077032673
0.071488786
0.067249343
0.065944899
0.065618788
0.067249343
0.066271010
0.066271010
0.066923232
0.069206009
0.071814897
0.076054340
0.082250449
0.087794337
0.092033780
0.095947112
0.098882111
0.101817110
0.106708775
0.110948218
0.116818216
0.120405438
0.121383771
0.120405438
0.116818216
0.112904884
0.108013219
0.104752109
0.100186555
0.096599334
0.091707669
0.084859337
0.078011006
0.069206009
0.063009900
0.059096568
0.056161569
0.056161569
0.056487680
0.056813791
0.055509347
0.055509347
0.057139902
0.059096568
0.063009900
0.068879898
0.074423785
0.078989339
0.083228782
0.085837670
0.089098781
0.092686002
0.096925445
0.102143221
0.106708775
0.108339330
0.108339330
0.106056553
0.102143221
0.097903778
0.093012113
0.090077114
0.086163781
0.082576560
0.075728229
0.069532120
0.061705456
0.054857124
0.050617681
0.046704349
0.046052127
0.046704349
0.047682682
0.047030460
0.047030460
0.048334904
0.049639348
0.054204902
0.058770457
0.065292677
0.069532120
0.074749896
0.078337117
0.081272116
0.084859337
0.089098781
0.094642668
0.099534333
0.102469332
0.103121554
0.100838777
0.097251556
0.093338224
0.088772670
0.085185448
0.081272116
0.078337117
0.072793230
0.066271010
0.058444346
0.050943792
0.044747683
0.041160462
0.039856018
0.040182129
0.040834351
0.040182129
0.039856018
0.040182129
0.041812684
0.044421572
0.048987126
0.054857124
0.060401012
0.064966566
0.068879898
0.072141008
0.075402118
0.079315450
0.084533226
0.088772670
0.092686002
0.093990446
0.093338224
0.090403225
0.085837670
0.081598227
0.077032673
0.074097674
0.070184342
0.065944899
0.058444346
0.051596014
0.045399905
0.037899352
0.033333798
0.031703243
0.031377132
0.032029354
0.032029354
0.031703243
0.032029354
0.033007687
0.035290464
0.039529907
0.046378238
0.052248236
0.056487680
0.060727123
0.063988233
0.067901565
0.070510453
0.075402118
0.080293783
0.085837670
0.086816004
0.087468226
0.084859337
0.080293783
0.076380451
0.071814897
0.068553787
0.065292677
0.060727123
0.054857124
0.048008793
0.040182129
0.033659909
0.028442133
0.025181023
0.024202689
0.025181023
0.024528801
0.023876578
0.024854912
0.026159356
0.027137689
0.030724910
0.036921019
0.042138795
0.047030460
0.051922125
0.054531013
0.058444346
0.062357678
0.065292677
0.072793230
0.076054340
0.080293783
0.079967672
0.078663228
0.075076007
0.070836564
0.066923232
0.063662122
0.059096568
0.055509347
0.049639348
0.043443239
0.036268797
0.029094355
0.022572134
0.019311024
0.018006580
0.018332691
0.018984913
0.018658802
0.018332691
0.019311024
0.020615468
0.023876578
0.028442133
0.034312131
0.038877685
0.044747683
0.048008793
0.051269903
0.054531013
0.058770457
0.063988233
0.068227676
0.073771563
0.073445452
0.072141008
0.069858231
0.065944899
0.061705456
0.057139902
0.053226569
0.049965459
0.045073794
0.037899352
0.031051021
0.024202689
0.017680469
0.013114915
0.010506027
0.010179916
0.011484360
0.011484360
0.011158249
0.010506027
0.011810471
0.015071581
0.018984913
0.024202689
0.029746577
0.034964353
0.039203796
0.042791017
0.046052127
0.049639348
0.054204902
0.059748790
0.063336011
0.066597121
0.066271010
0.063662122
0.060401012
0.056813791
0.052574347
0.048008793
0.044747683
0.040508240
0.035290464
0.027789911
0.020615468
0.013767137
0.008549361
0.005288251
0.004636029
0.005940473
0.006266584
0.006592695
0.006918806
0.007897139
0.009527694
0.013767137
0.018658802
0.024528801
0.029746577
0.035290464
0.038551574
0.042464906
0.045399905
0.049965459
0.055835458
0.060727123
0.063009900
0.063336011
0.062683789
0.058118235
0.054857124
0.049313237
0.046378238
0.042791017
0.039203796
0.033986020
0.026159356
0.018984913
0.011810471
0.005940473
0.003005474
0.000722697
0.001701030
0.001701030
0.001701030
0.000722697
0.001701030
0.002679363
0.005288251
0.010179916
0.016376025
0.021919912
0.027137689
0.030724910
0.034312131
0.037573241
0.041812684
0.046378238
0.051269903
0.055509347
0.056813791
0.056813791
0.053552680
0.048987126
0.045399905
0.040182129
0.037573241
0.033007687
0.028768244
0.022246023
0.015723803
0.008875472
0.002027141
-0.002538413
-0.005473412
-0.006125634
-0.004495079
-0.005147301
-0.004495079
-0.004495079
-0.003516746
-0.000907858
0.003983807
0.008875472
0.015071581
0.021267690
0.025181023
0.028442133
0.031703243
0.035942686
0.041812684
0.045726016
0.050291570
0.052574347
0.052248236
0.049965459
0.046378238
0.042464906
0.037573241
0.034964353
0.030724910
0.026811578
0.021593801
0.015071581
0.007571028
0.000396586
-0.004168968
-0.007103968
-0.008408412
-0.007103968
-0.006777856
-0.006125634
-0.006451745
-0.005147301
-0.002212302
0.001048808
0.006918806
0.012788804
0.018658802
0.023876578
0.027789911
0.031703243
0.034638242
0.040834351
0.046378238
0.051596014
0.054531013
0.056161569
0.055183235
0.052248236
0.047682682
0.044747683
0.041812684
0.038551574
0.034638242
0.030072688
0.025181023
0.017028247
0.011810471
0.006592695
0.003005474
0.002353252
0.003005474
0.004636029
0.005288251
0.005940473
0.006918806
0.009527694
0.012136582
0.018658802
0.025181023
0.031377132
0.037573241
0.042138795
0.046052127
0.049639348
0.055509347
0.060074901
0.066271010
0.070836564
0.072141008
0.072467119
0.069858231
0.066597121
0.062683789
0.058770457
0.055509347
0.052900458
0.049313237
0.043443239
0.037573241
0.030398799
0.024528801
0.020941579
0.019311024
0.019311024
0.020615468
0.021267690
0.021919912
0.022246023
0.024528801
0.027463800
0.032681576
0.038225463
0.044747683
0.050291570
0.054857124
0.059422679
0.063662122
0.067249343
0.072467119
0.078663228
0.083228782
0.086163781
0.087468226
0.084859337
0.082250449
0.077032673
0.074097674
0.071814897
0.068879898
0.063662122
0.058770457
0.053226569
0.046704349
0.040834351
0.036594908
0.033333798
0.032681576
0.033333798
0.035290464
0.035290464
0.035942686
0.037247130
0.039529907
0.043117128
0.049313237
0.056487680
0.062357678
0.066923232
0.071488786
0.075402118
0.079315450
0.084207115
0.089751003
0.095294890
0.098556000
0.099534333
0.097903778
0.095947112
0.092359891
0.087794337
0.083881004
0.081272116
0.077684895
0.074097674
0.067249343
0.060074901
0.054204902
0.048987126
0.045073794
0.044095461
0.045399905
0.045399905
0.046378238
0.047356571
0.048334904
0.049313237
0.052900458
0.057792124
0.064640455
0.070184342
0.075402118
0.079641561
0.083554893
0.087794337
0.092359891
0.097577667
0.103121554
0.107687108
0.109969885
0.108991552
0.107360997
0.103447665
0.099860444
0.096599334
0.092686002
0.090077114
0.086816004
0.081598227
0.073445452
0.067901565
0.061705456
0.057792124
0.055183235
0.056161569
0.056813791
0.057792124
0.058444346
0.060727123
0.061379345
0.063662122
0.068879898
0.074749896
0.080946005
0.086816004
0.092359891
0.095947112
0.100186555
0.104425998
0.109643774
0.114209328
0.119100994
0.121709882
0.122035993
0.120079327
0.116818216
0.112578773
0.108991552
0.104425998
0.101164888
0.097903778
0.092359891
0.086489893
0.079967672
0.073119341
0.067901565
0.065618788
0.064314344
0.064640455
0.066271010
0.065944899
0.066923232
0.067575454
0.069532120
0.073119341
0.078337117
0.084859337
0.090077114
0.095294890
0.099534333
0.102469332
0.106382664
0.110948218
0.116492105
0.120731549
0.123992659
0.125297103
0.123992659
0.119753216
0.116492105
0.111600440
0.107360997
0.104099887
0.101164888
0.095947112
0.089424892
0.083228782
0.075728229
0.069206009
0.066271010
0.064640455
0.064966566
0.064966566
0.065944899
0.065618788
0.066923232
0.067575454
0.071162675
0.076706562
0.081598227
0.087794337
0.092359891
0.096925445
0.100186555
0.103447665
0.107360997
0.112578773
0.117796550
0.121383771
0.123340437
0.121709882
0.119100994
0.114861550
0.110295996
0.106056553
0.102143221
0.098882111
0.094642668
0.088772670
0.080946005
0.074423785
0.067575454
0.062683789
0.060727123
0.060401012
0.060401012
0.062031567
0.060727123
0.061705456
0.063336011
0.064966566
0.069206009
0.073445452
0.079641561
0.085511559
0.090077114
0.093012113
0.096599334
0.100186555
0.105078220
0.109969885
0.114861550
0.116818216
0.117470439
0.114535439
0.110948218
0.106708775
0.102795443
0.098882111
0.095621001
0.091707669
0.086816004
0.078989339
0.071814897
0.065618788
0.060727123
0.057139902
0.056813791
0.057466013
0.057466013
0.057139902
0.057792124
0.058444346
0.060727123
0.063662122
0.068879898
0.076054340
0.081924338
0.086489893
0.090077114
0.093012113
0.097251556
0.102469332
0.107034886
0.111926551
0.114861550
0.115839883
0.113230995
0.110622107
0.105730442
0.101164888
0.097903778
0.094316557
0.090729336
0.085511559
0.078989339
0.073119341
0.065292677
0.060074901
0.056487680
0.054531013
0.054531013
0.055835458
0.055509347
0.056161569
0.056487680
0.057792124
0.060401012
0.064966566
0.070836564
0.078011006
0.082250449
0.086816004
0.089424892
0.093012113
0.097577667
0.102795443
0.108013219
0.110948218
0.113230995
0.112904884
0.109643774
0.106382664
0.102469332
0.098229889
0.094642668
0.091055447
0.087468226
0.080946005
0.074097674
0.066597121
0.061053234
0.056487680
0.054531013
0.054204902
0.054531013
0.055183235
0.055509347
0.055835458
0.058444346
0.060401012
0.064966566
0.070836564
0.077032673
0.082576560
0.087468226
0.090729336
0.094968779
0.099208222
0.103121554
0.108991552
0.112578773
0.116492105
0.115839883
0.113230995
0.109643774
0.105078220
0.100838777
0.097903778
0.093338224
0.089751003
0.084533226
0.077032673
0.070184342
0.063662122
0.058444346
0.055835458
0.054204902
0.054531013
0.055509347
0.056487680
0.055509347
0.056487680
0.058444346
0.062031567
0.066597121
0.073445452
0.078011006
0.083228782
0.086489893
0.090403225
0.093338224
0.097903778
0.102795443
0.107687108
0.111600440
0.112904884
0.109969885
0.107687108
0.103447665
0.099534333
0.094968779
0.091381558
0.087794337
0.082902671
0.076380451
0.068879898
0.061705456
0.056161569
0.052248236
0.050617681
0.051269903
0.051269903
0.051269903
0.052248236
0.052574347
0.053878791
0.057466013
0.061053234
0.067575454
0.072793230
0.078663228
0.083228782
0.086489893
0.090077114
0.093990446
0.098556000
0.103773776
0.107360997
0.109317663
0.108013219
0.105730442
0.100838777
0.096599334
0.092033780
0.087794337
0.085185448
0.080293783
0.074749896
0.067901565
0.059748790
0.054204902
0.049313237
0.047356571
0.047030460
0.048008793
0.048008793
0.048008793
0.048008793
0.049313237
0.051596014
0.055509347
0.061705456
0.067249343
0.072467119
0.077684895
0.080946005
0.085185448
0.087794337
0.092359891
0.096925445
0.101817110
0.104425998
0.105078220
0.103121554
0.098556000
0.094968779
0.090729336
0.086816004
0.083554893
0.079315450
0.074097674
0.068553787
0.061705456
0.053878791
0.048334904
0.046052127
0.044747683
0.045399905
0.047356571
0.046052127
0.047030460
0.048008793
0.050291570
0.053878791
0.058770457
0.065618788
0.071488786
0.076706562
0.080619894
0.084207115
0.087794337
0.093012113
0.097577667
0.102795443
0.106708775
0.107360997
0.105404331
0.102143221
0.097251556
0.092686002
0.089098781
0.085837670
0.081598227
0.077032673
0.071162675
0.063988233
0.056487680
0.050617681
0.047356571
0.044747683
0.046704349
0.047356571
0.047682682
0.047682682
0.048334904
0.049639348
0.052574347
0.057792124
0.062683789
0.069532120
0.074423785
0.078663228
0.082576560
0.085511559
0.090077114
0.094968779
0.099860444
0.104099887
0.106056553
0.106382664
0.102795443
0.099208222
0.095294890
0.091381558
0.087142115
0.084207115
0.079315450
0.074097674
0.067249343
0.060074901
0.053552680
0.049639348
0.047356571
0.047030460
0.047682682
0.048661015
0.048334904
0.049639348
0.049965459
0.052248236
0.056813791
0.062357678
0.068879898
0.075076007
0.079315450
0.083881004
0.086816004
0.091381558
0.095621001
0.100512666
0.105078220
0.108013219
0.107360997
0.105404331
0.102469332
0.097577667
0.093338224
0.089751003
0.086163781
0.081924338
0.077358784
0.070184342
0.063336011
0.056487680
0.051922125
0.048987126
0.048008793
0.047356571
0.049313237
0.049313237
0.049639348
0.050617681
0.052248236
0.056161569
0.060727123
0.066597121
0.072141008
0.077032673
0.080946005
0.084533226
0.088120448
0.092033780
0.096925445
0.101817110
0.105404331
0.106708775
0.105078220
0.101490999
0.097251556
0.092686002
0.088772670
0.085511559
0.080946005
0.076706562
0.069532120
0.062683789
0.055835458
0.050617681
0.046378238
0.044095461
0.045073794
0.045399905
0.046052127
0.046704349
0.047030460
0.049313237
0.051596014
0.057139902
0.062031567
0.069532120
0.074423785
0.078337117
0.081924338
0.086489893
0.091055447
0.095294890
0.099860444
0.105404331
0.106708775
0.106382664
0.103121554
0.099860444
0.095294890
0.091381558
0.088446559
0.083881004
0.079967672
0.075076007
0.068227676
0.060074901
0.054531013
0.050943792
0.048987126
0.048334904
0.048987126
0.050617681
0.050617681
0.051922125
0.053226569
0.055183235
0.059422679
0.065944899
0.072467119
0.078337117
0.082902671
0.087794337
0.092033780
0.096273223
0.101164888
0.106382664
0.112252662
0.114535439
0.115513772
0.114861550
0.111274329
0.108013219
0.104425998
0.100512666
0.098229889
0.093990446
0.090077114
0.084533226
0.077684895
0.071488786
0.067249343
0.064314344
0.063336011
0.065618788
0.065944899
0.066923232
0.067901565
0.069532120
0.071814897
0.076054340
0.081598227
0.087794337
0.094968779
0.100186555
0.105404331
0.108991552
0.113883217
0.118448772
0.124644881
0.129210435
0.133449878
0.135080433
0.133449878
0.131167101
0.127579880
0.123014326
0.120405438
0.117144327
0.113557106
0.110295996
0.104425998
0.097577667
0.091707669
0.086489893
0.082902671
0.082576560
0.083228782
0.084859337
0.086163781
0.086163781
0.087142115
0.090403225
0.092686002
0.097577667
0.103773776
0.110948218
0.117144327
0.121709882
0.124970992
0.129862657
0.134428211
0.139645987
0.144863763
0.149755429
0.152364317
0.152690428
0.150733762
0.146168207
0.142907097
0.138993765
0.135732655
0.132797656
0.129210435
0.123992659
0.118122661
0.111274329
0.104752109
0.100512666
0.099208222
0.098229889
0.100512666
0.101817110
0.102795443
0.103773776
0.104425998
0.107360997
0.111926551
0.118448772
0.124318770
0.131167101
0.137363210
0.140624320
0.144863763
0.148777096
0.154320983
0.159538759
0.164430424
0.167039312
0.168343756
0.167039312
0.162799869
0.158886537
0.154647094
0.151059873
0.147146540
0.144537652
0.139645987
0.133123767
0.126275436
0.119753216
0.115513772
0.112578773
0.112252662
0.112578773
0.113883217
0.114535439
0.115187661
0.115513772
0.119100994
0.122035993
0.127905991
0.134102100
0.140624320
0.145842096
0.150081540
0.153994872
0.157908204
0.162147647
0.168017645
0.173235421
0.176822642
0.178453197
0.177800975
0.174865976
0.170626533
0.167365423
0.162799869
0.159864870
0.156603760
0.152364317
0.146820429
0.139319876
0.133449878
0.127579880
0.124318770
0.122362104
0.123666548
0.124970992
0.126601547
0.126601547
0.127579880
0.131167101
0.134102100
0.138341543
0.145189874
0.151059873
0.157255982
0.162473758
0.165734868
0.169974311
0.174213754
0.180083753
0.185301529
0.189867083
0.192149860
0.192475971
0.189214861
0.185953751
0.181714308
0.178453197
0.174539865
0.170952644
0.167691534
0.161821536
0.155625427
0.148124873
0.142907097
0.138015432
0.136384877
0.136384877
0.138341543
0.138341543
0.139319876
0.139645987
0.141276542
0.144211541
0.147798762
0.152364317
0.159212648
0.166060979
0.170626533
0.173887643
0.177474864
0.182040419
0.186605973
0.191823749
0.196389303
0.199976524
0.199650413
0.198019858
0.194758748
0.191497638
0.186932084
0.183018752
0.179105419
0.175844309
0.170300422
0.164104313
0.157582093
0.151059873
0.145515985
0.141928764
0.141928764
0.142254875
0.142580986
0.143885430
0.144537652
0.144537652
0.147146540
0.150407651
0.155299316
0.160843203
0.167039312
0.172257088
0.176170420
0.180083753
0.183997085
0.188236528
0.193128193
0.198345969
0.201280968
0.201933190
0.200954857
0.196715414
0.192475971
0.187910417
0.183997085
0.180409864
0.176822642
0.172257088
0.166387090
0.158886537
0.151385984
0.145515985
0.141276542
0.140298209
0.139972098
0.140950431
0.140950431
0.141276542
0.141928764
0.143233208
0.145842096
0.150733762
0.156603760
0.162799869
0.166713201
0.171604866
0.176170420
0.179431531
0.183018752
0.186932084
0.192802082
0.197041525
0.198019858
0.198019858
0.196715414
0.192149860
0.187258195
0.183018752
0.178779308
0.175844309
0.170952644
0.165408757
0.159212648
0.151385984
0.145842096
0.140950431
0.138341543
0.138341543
0.138341543
0.139645987
0.139972098
0.140298209
0.141602653
0.143559319
0.147798762
0.153342650
0.159212648
0.166060979
0.169974311
0.173235421
0.177474864
0.181388197
0.185627640
0.190519305
0.195084859
0.198672080
0.198345969
0.196715414
0.193128193
0.187584306
0.184323196
0.179757642
0.175518198
0.172583199
0.168343756
0.161495425
0.154320983
0.148124873
0.142254875
0.139319876
0.138993765
0.139645987
0.139645987
0.140624320
0.140298209
0.141928764
0.143233208
0.147472651
0.151385984
0.157908204
0.164430424
0.169648200
0.173235421
0.177148753
0.180735975
0.184975418
0.189867083
0.194758748
0.198345969
0.199650413
0.198019858
0.195410970
0.191497638
0.187258195
0.183018752
0.180409864
0.176496531
0.171930977
0.165734868
0.157908204
0.151059873
0.145515985
0.141928764
0.139645987
0.139645987
0.140298209
0.141928764
0.142254875
0.142580986
0.143885430
0.146494318
0.151385984
0.157582093
0.164104313
0.170300422
0.173887643
0.176822642
0.181714308
0.185627640
0.190193194
0.195084859
0.198345969
0.200954857
0.200302635
0.197693747
0.193454304
0.189214861
0.185627640
0.181062086
0.178127086
0.173235421
0.167691534
0.161821536
0.154320983
0.148124873
0.142907097
0.140624320
0.140950431
0.141928764
0.142580986
0.142580986
0.142580986
0.144211541
0.146168207
0.151059873
0.155951538
0.162147647
0.168017645
0.172257088
0.176496531
0.179431531
0.183018752
0.187910417
0.192475971
0.197041525
0.199976524
0.200628746
0.198019858
0.194758748
0.190193194
0.186279862
0.182040419
0.177474864
0.174213754
0.169322089
0.163125980
0.155625427
0.149755429
0.143559319
0.139645987
0.138993765
0.139972098
0.140624320
0.141602653
0.141602653
0.142907097
0.144863763
0.147472651
0.152690428
0.157908204
0.165082646
0.169648200
0.173887643
0.177148753
0.180409864
0.184649307
0.189540972
0.193454304
0.197367636
0.198019858
0.197041525
0.194106526
0.189867083
0.184323196
0.180083753
0.176496531
0.172583199
0.168017645
0.161821536
0.154647094
0.147798762
0.141602653
0.137037099
0.136384877
0.136384877
0.137037099
0.137689321
0.137037099
0.138341543
0.139319876
0.142254875
0.146168207
0.152364317
0.158560426
0.164104313
0.167691534
0.171604866
0.174865976
0.179431531
0.184323196
0.188888750
0.192802082
0.194432637
0.194758748
0.192149860
0.187584306
0.183997085
0.179105419
0.175192087
0.171930977
0.167039312
0.161821536
0.154973205
0.148450985
0.142254875
0.136710988
0.134428211
0.134102100
0.134754322
0.134754322
0.136058766
0.136384877
0.137363210
0.138341543
0.142907097
0.148450985
0.154647094
0.160843203
0.164756535
0.168343756
0.172909310
0.176496531
0.181062086
0.186279862
0.190519305
0.193128193
0.194106526
0.192149860
0.188236528
0.182692641
0.178779308
0.175192087
0.171604866
0.167365423
0.163125980
0.156929871
0.149103207
0.143233208
0.137037099
0.134102100
0.133775989
0.133449878
0.135080433
0.134754322
0.136710988
0.135732655
0.138341543
0.141928764
0.146168207
0.152690428
0.158886537
0.163125980
0.167039312
0.170952644
0.174539865
0.178779308
0.183670974
0.187910417
0.191497638
0.192802082
0.191497638
0.189214861
0.184323196
0.179757642
0.175844309
0.171930977
0.168017645
0.163452091
0.157908204
0.151712095
0.143559319
0.138015432
0.133775989
0.132797656
0.132797656
0.134102100
0.134754322
0.135080433
0.136058766
0.137037099
0.139319876
0.144537652
0.150081540
0.155625427
0.162147647
0.166387090
0.170626533
0.173887643
0.177800975
0.183018752
0.187584306
0.191497638
0.193128193
0.193128193
0.190193194
0.185953751
0.181714308
0.176822642
0.173561532
0.169648200
0.166060979
0.160190981
0.153016539
0.145515985
0.139319876
0.134102100
0.132145434
0.132797656
0.132797656
0.133449878
0.134754322
0.135406544
0.135406544
0.138667654
0.141602653
0.148124873
0.153994872
0.159538759
0.164756535
0.167691534
0.170300422
0.175192087
0.179431531
0.184649307
0.188888750
0.192475971
0.192149860
0.191823749
0.187910417
0.183018752
0.178127086
0.175518198
0.170952644
0.167039312
0.162147647
0.155299316
0.149429318
0.142254875
0.136710988
0.133449878
0.132145434
0.132471545
0.133123767
0.134102100
0.134428211
0.136058766
0.137037099
0.140624320
0.145515985
0.151712095
0.158560426
0.163778202
0.167365423
0.170626533
0.175844309
0.179105419
0.183997085
0.190193194
0.193454304
0.194432637
0.193128193
0.190845416
0.186605973
0.182366530
0.177800975
0.174213754
0.171278755
0.166713201
0.160190981
0.153668761
0.147472651
0.142254875
0.137689321
0.136384877
0.137037099
0.138667654
0.139319876
0.139319876
0.140950431
0.142254875
0.145515985
0.151385984
0.156929871
0.163125980
0.168995978
0.174213754
0.178453197
0.181714308
0.186605973
0.191497638
0.196715414
0.201607079
0.204215967
0.204542078
0.202585412
0.199650413
0.195410970
0.191171527
0.187910417
0.184975418
0.181714308
0.176170420
0.170626533
0.164104313
0.158886537
0.153668761
0.151712095
0.152364317
0.153668761
0.155625427
0.156277649
0.158234315
0.159538759
0.161821536
0.166713201
0.172583199
0.180083753
0.185953751
0.191497638
0.196063192
0.200954857
0.203889856
0.208455410
0.215303742
0.220847629
0.223130406
0.225087072
0.223782628
0.220847629
0.216608186
0.212694854
0.209759854
0.206498744
0.203563745
0.198672080
0.193128193
0.186279862
0.180735975
0.174865976
0.172583199
0.171604866
0.173235421
0.174865976
0.175518198
0.176496531
0.177474864
0.180083753
0.183670974
0.189540972
0.195737081
0.201607079
0.207150966
0.212042632
0.215955964
0.219543185
0.223782628
0.229652626
0.233892069
0.238783734
0.240088178
0.240088178
0.236174846
0.233239847
0.229000404
0.224434850
0.221173740
0.218238741
0.214651520
0.209107632
0.201933190
0.195084859
0.190193194
0.186279862
0.184649307
0.185301529
0.186605973
0.187910417
0.189540972
0.190193194
0.191823749
0.194106526
0.199324302
0.205194300
0.212368743
0.218564852
0.222478184
0.227369849
0.231283181
0.235522624
0.240414289
0.245305955
0.250197620
0.252806508
0.252806508
0.250197620
0.246936510
0.243349289
0.238457623
0.235522624
0.232261514
0.228674293
0.223130406
0.216608186
0.210412076
0.205194300
0.198345969
0.197367636
0.198019858
0.199324302
0.201280968
0.201607079
0.202585412
0.204215967
0.206172633
0.210738188
0.215955964
0.222804295
0.229652626
0.234544291
0.238457623
0.242370956
0.245958177
0.250523731
0.255741507
0.261285394
0.264546504
0.265198726
0.264220393
0.260307061
0.256719840
0.251828175
0.247914843
0.244979844
0.242697067
0.237479290
0.230630959
0.225087072
0.218238741
0.213020965
0.210412076
0.208781521
0.209759854
0.210738188
0.212042632
0.213020965
0.214325409
0.215955964
0.219543185
0.224760961
0.230630959
0.236500957
0.242370956
0.246284288
0.250197620
0.253784841
0.257698173
0.262263727
0.267807614
0.271720946
0.273351502
0.272373168
0.268459836
0.264220393
0.260633172
0.256067618
0.252480397
0.249219287
0.244979844
0.239109845
0.232913736
0.226065405
0.219543185
0.215955964
0.214651520
0.214977631
0.216282075
0.216934297
0.217912630
0.218564852
0.219869296
0.221825962
0.227369849
0.232913736
0.238783734
0.244653733
0.248893176
0.252806508
0.256067618
0.260633172
0.264872615
0.270416502
0.274655946
0.276286501
0.276286501
0.274329835
0.270416502
0.265524837
0.261285394
0.257372062
0.254437063
0.250197620
0.244327622
0.237805401
0.230304848
0.224760961
0.220521518
0.217260408
0.217260408
0.217912630
0.218564852
0.219543185
0.219543185
0.220521518
0.222804295
0.226391516
0.230630959
0.237479290
0.243349289
0.248240954
0.251828175
0.255089285
0.258676506
0.263242060
0.267807614
0.271720946
0.275308168
0.275308168
0.273677613
0.269438169
0.265524837
0.260959283
0.257698173
0.252480397
0.249545398
0.244653733
0.238131512
0.231283181
0.223782628
0.218238741
0.215303742
0.213999298
0.215303742
0.215955964
0.216608186
0.217586519
0.217912630
0.220195407
0.223130406
0.228022071
0.233565958
0.239762067
0.244979844
0.248893176
0.251828175
0.256067618
0.259980950
0.263894282
0.268459836
0.272373168
0.273677613
0.272699280
0.269764280
0.265198726
0.260633172
0.256067618
0.252480397
0.248893176
0.244979844
0.237479290
0.231283181
0.224434850
0.217260408
0.213673187
0.213020965
0.211390410
0.212368743
0.213020965
0.213999298
0.213673187
0.215303742
0.217260408
0.221825962
0.227043738
0.232913736
0.238131512
0.242697067
0.246284288
0.249545398
0.253458730
0.256719840
0.261937616
0.265850948
0.268133725
0.266829281
0.264872615
0.260307061
0.256393729
0.250197620
0.247262621
0.242697067
0.239435956
0.234544291
0.226717627
0.219543185
0.213020965
0.208781521
0.205194300
0.204868189
0.205194300
0.206498744
0.207150966
0.207150966
0.208455410
0.209759854
0.212694854
0.218238741
0.224434850
0.229652626
0.234870402
0.238783734
0.241392622
0.245632066
0.248567065
0.253784841
0.258350395
0.259980950
0.261285394
0.259002617
0.256067618
0.251502064
0.246284288
0.241392622
0.238457623
0.233892069
0.229326515
0.222152073
0.215629853
0.208781521
0.202585412
0.199650413
0.198998191
0.199650413
0.200302635
0.199650413
0.200954857
0.201280968
0.202911523
0.205194300
0.210738188
0.215303742
0.221825962
0.226717627
0.230304848
0.234544291
0.237153179
0.241718734
0.245958177
0.250523731
0.253784841
0.255089285
0.253784841
0.250849842
0.247262621
0.241718734
0.237479290
0.232913736
0.230304848
0.225739294
0.218890963
0.212042632
0.204542078
0.199324302
0.195084859
0.192149860
0.194106526
0.194106526
0.194432637
0.194758748
0.195410970
0.197041525
0.198998191
0.202911523
0.208781521
0.215303742
0.220847629
0.224434850
0.227695960
0.231283181
0.235522624
0.239109845
0.243675400
0.246936510
0.249871509
0.249545398
0.246936510
0.242370956
0.238131512
0.233239847
0.229000404
0.225413183
0.221825962
0.216282075
0.209759854
0.202585412
0.196715414
0.191497638
0.189214861
0.188236528
0.189214861
0.190193194
0.190519305
0.190845416
0.192802082
0.194432637
0.198672080
0.203237634
0.209107632
0.214977631
0.220195407
0.224108739
0.227369849
0.231283181
0.235196513
0.239435956
0.244327622
0.247588732
0.247588732
0.246284288
0.242697067
0.238457623
0.234218180
0.229000404
0.226391516
0.221499851
0.217260408
0.211064299
0.203889856
0.196715414
0.192475971
0.188562639
0.187258195
0.187910417
0.189540972
0.189540972
0.190519305
0.191171527
0.192475971
0.195410970
0.201280968
0.206498744
0.213347076
0.218238741
0.222478184
0.224760961
0.229978737
0.233239847
0.238457623
0.243675400
0.246936510
0.247588732
0.246284288
0.243349289
0.239762067
0.234544291
0.230304848
0.226717627
0.222478184
0.218890963
0.213673187
0.205520411
0.198998191
0.192802082
0.188888750
0.187258195
0.187258195
0.188236528
0.189540972
0.189540972
0.190845416
0.192149860
0.195410970
0.199324302
0.204868189
0.211064299
0.216282075
0.221173740
0.225413183
0.228348182
0.233239847
0.236827068
0.241066511
0.244979844
0.247914843
0.246936510
0.244979844
0.240740400
0.236500957
0.230957070
0.228022071
0.224108739
0.220521518
0.214325409
0.208129299
0.201280968
0.194758748
0.189540972
0.186932084
0.187258195
0.187584306
0.189867083
0.189214861
0.189867083
0.190519305
0.193128193
0.196063192
0.201933190
0.207803188
0.213673187
0.218238741
0.221825962
0.225739294
0.229000404
0.233565958
0.237479290
0.241718734
0.244979844
0.245632066
0.243675400
0.240414289
0.236174846
0.231283181
0.227369849
0.222804295
0.218890963
0.214977631
0.208455410
0.201280968
0.194758748
0.188562639
0.185301529
0.184323196
0.184649307
0.185301529
0.185953751
0.185953751
0.187910417
0.188888750
0.191823749
0.196063192
0.201280968
0.208129299
0.213020965
0.217586519
0.220521518
0.224434850
0.227695960
0.232587625
0.236500957
0.240088178
0.242044845
0.240740400
0.236500957
0.233565958
0.229000404
0.223782628
0.219543185
0.215955964
0.212042632
0.207150966
0.199324302
0.192475971
0.186279862
0.182040419
0.180409864
0.179757642
0.180409864
0.181714308
0.182366530
0.182692641
0.183670974
0.186279862
0.190193194
0.195737081
0.201607079
0.207150966
0.211064299
0.214977631
0.218564852
0.222152073
0.226391516
0.231283181
0.233892069
0.237153179
0.236500957
0.233565958
0.229978737
0.224108739
0.220847629
0.216608186
0.212368743
0.208455410
0.203237634
0.196715414
0.189214861
0.183018752
0.177800975
0.175192087
0.174539865
0.175192087
0.176822642
0.177800975
0.178453197
0.179431531
0.181062086
0.184975418
0.190193194
0.196389303
0.201607079
0.207477077
0.211390410
0.214651520
0.218238741
0.222152073
0.227043738
0.231609292
0.235196513
0.234870402
0.232587625
0.229652626
0.225413183
0.221825962
0.217260408
0.213999298
0.209759854
0.205846522
0.199650413
0.192475971
0.186279862
0.180735975
0.177474864
0.177148753
0.178127086
0.179431531
0.180735975
0.181062086
0.182366530
0.184975418
0.187584306
0.192149860
0.198672080
0.205846522
0.210412076
0.215955964
0.219217074
0.222804295
0.227695960
0.232587625
0.238131512
0.242044845
0.244001511
0.244327622
0.241718734
0.237805401
0.233239847
0.229652626
0.225739294
0.223130406
0.219543185
0.213999298
0.207477077
0.201280968
0.195737081
0.192475971
0.190845416
0.190845416
0.192802082
0.195410970
0.196063192
0.196389303
0.198998191
0.202585412
0.206498744
0.213020965
0.220195407
0.226065405
0.231283181
0.235848735
0.240088178
0.244653733
0.248893176
0.253784841
0.259328728
0.261937616
0.262263727
0.260633172
0.256719840
0.252480397
0.248893176
0.245958177
0.243023178
0.239109845
0.235196513
0.228022071
0.222152073
0.216608186
0.212042632
0.209107632
0.209433743
0.211390410
0.213020965
0.213999298
0.214977631
0.216934297
0.219217074
0.223456517
0.229326515
0.235848735
0.242044845
0.246936510
0.251502064
0.255741507
0.259328728
0.263894282
0.268785947
0.274329835
0.276938723
0.278569278
0.276938723
0.273677613
0.270090391
0.265524837
0.261611505
0.258676506
0.255089285
0.251175953
0.245632066
0.239109845
0.232587625
0.227043738
0.224108739
0.223456517
0.224434850
0.225413183
0.227369849
0.228348182
0.230304848
0.231609292
0.234544291
0.239762067
0.246610399
0.252480397
0.259002617
0.262915949
0.266829281
0.271068724
0.274329835
0.279547611
0.284113165
0.289004830
0.290961496
0.290635385
0.287374275
0.283460943
0.278895389
0.274655946
0.271394835
0.268133725
0.263568171
0.258676506
0.251828175
0.246284288
0.239762067
0.236174846
0.234544291
0.235848735
0.236174846
0.238783734
0.238783734
0.240088178
0.241718734
0.244327622
0.248567065
0.255089285
0.260959283
0.266829281
0.271720946
0.276286501
0.279873722
0.284113165
0.289330941
0.293244273
0.297809827
0.300744826
0.300418715
0.298788160
0.295853161
0.291287607
0.287374275
0.282482610
0.279873722
0.275960390
0.270742613
0.264872615
0.258024284
0.251828175
0.247588732
0.245632066
0.244979844
0.245958177
0.247914843
0.248240954
0.248893176
0.250197620
0.252480397
0.255741507
0.261285394
0.267481503
0.274329835
0.279873722
0.283460943
0.287048164
0.291287607
0.295527050
0.299766493
0.304332048
0.307267047
0.308245380
0.306940936
0.303027603
0.299440382
0.294874828
0.290961496
0.286722053
0.282808721
0.279221500
0.273025391
0.266503170
0.259328728
0.254763174
0.251175953
0.250197620
0.250849842
0.252154286
0.253458730
0.253458730
0.254763174
0.257045951
0.259328728
0.264220393
0.270742613
0.276286501
0.282482610
0.286069831
0.289657052
0.292918162
0.296831494
0.301070937
0.305636492
0.309549824
0.311506490
0.310854268
0.307919269
0.303027603
0.299440382
0.294548717
0.290961496
0.287374275
0.282156499
0.276612612
0.271068724
0.263242060
0.258024284
0.252806508
0.251502064
0.250849842
0.252154286
0.252480397
0.253132619
0.254437063
0.255415396
0.258350395
0.262589838
0.267481503
0.274329835
0.278895389
0.284439276
0.287374275
0.290635385
0.294222606
0.298135938
0.303027603
0.306288714
0.309223713
0.308245380
0.306614825
0.302701492
0.297809827
0.292592051
0.288352608
0.284765387
0.280525944
0.275634279
0.269112058
0.262263727
0.255089285
0.250523731
0.247262621
0.246284288
0.247262621
0.248893176
0.248893176
0.249219287
0.250523731
0.252154286
0.255415396
0.260307061
0.266177059
0.271720946
0.276612612
0.280525944
0.283460943
0.287374275
0.290961496
0.294874828
0.300092604
0.302375381
0.303679826
0.300744826
0.297157605
0.292265940
0.288026497
0.283460943
0.279873722
0.275960390
0.270742613
0.264546504
0.257698173
0.249871509
0.244001511
0.240740400
0.240088178
0.239762067
0.240740400
0.240414289
0.241392622
0.241718734
0.243023178
0.245958177
0.250197620
0.256393729
0.261611505
0.266829281
0.270416502
0.273677613
0.276286501
0.280525944
0.284765387
0.288678719
0.292918162
0.293896495
0.293244273
0.289330941
0.284765387
0.280852055
0.274982057
0.271394835
0.267481503
0.263568171
0.257372062
0.250849842
0.243023178
0.236827068
0.231935403
0.229652626
0.229652626
0.230957070
0.231935403
0.231935403
0.232587625
0.233565958
0.235522624
0.240088178
0.245305955
0.251502064
0.256067618
0.260633172
0.264220393
0.268133725
0.271068724
0.275308168
0.279873722
0.284113165
0.286069831
0.285743720
0.283460943
0.278895389
0.274655946
0.269764280
0.264220393
0.260959283
0.257698173
0.252154286
0.245305955
0.238783734
0.231283181
0.227043738
0.223456517
0.222152073
0.223456517
0.225087072
0.225087072
0.226391516
0.226717627
0.229000404
0.231283181
0.237153179
0.243675400
0.248893176
0.253458730
0.258024284
0.261937616
0.264546504
0.268459836
0.272699280
0.276938723
0.280525944
0.280525944
0.279221500
0.275308168
0.271068724
0.266177059
0.261285394
0.256719840
0.252806508
0.248240954
0.242370956
0.236174846
0.228348182
0.222804295
0.219217074
0.218238741
0.218890963
0.219543185
0.220195407
0.221173740
0.221499851
0.224108739
0.227043738
0.231283181
0.236500957
0.243023178
0.247914843
0.252154286
0.255089285
0.259654839
0.262915949
0.266829281
0.271394835
0.274655946
0.276612612
0.275960390
0.273025391
0.268459836
0.263568171
0.259002617
0.254763174
0.251175953
0.246610399
0.241392622
0.234218180
0.226717627
0.221173740
0.216608186
0.213999298
0.213999298
0.214977631
0.216282075
0.217260408
0.217586519
0.218564852
0.221173740
0.225087072
0.229978737
0.235848735
0.242697067
0.246284288
0.249219287
0.252806508
0.256393729
0.260633172
0.265198726
0.269112058
0.271394835
0.270416502
0.268133725
0.264220393
0.259328728
0.254110952
0.249545398
0.246610399
0.241392622
0.236174846
0.230630959
0.222152073
0.215303742
0.211064299
0.207477077
0.208129299
0.208129299
0.209759854
0.210085965
0.210412076
0.210738188
0.213020965
0.215955964
0.221499851
0.227369849
0.232913736
0.237805401
0.241718734
0.244979844
0.249219287
0.252806508
0.257698173
0.260633172
0.263894282
0.264220393
0.262915949
0.259002617
0.254437063
0.250197620
0.244001511
0.241066511
0.236500957
0.231609292
0.226065405
0.218238741
0.211064299
0.205520411
0.201607079
0.200302635
0.199976524
0.201280968
0.202259301
0.202911523
0.204215967
0.204542078
0.207150966
0.211716521
0.217260408
0.223456517
0.229000404
0.232913736
0.236174846
0.239109845
0.243023178
0.246936510
0.251828175
0.255415396
0.256719840
0.255741507
0.252806508
0.249219287
0.243349289
0.238457623
0.234544291
0.230304848
0.226065405
0.220195407
0.213673187
0.205846522
0.199976524
0.195410970
0.192802082
0.192149860
0.193780415
0.194106526
0.195410970
0.195084859
0.196715414
0.198345969
0.202259301
0.207477077
0.214325409
0.219543185
0.223782628
0.227369849
0.230304848
0.234218180
0.238131512
0.242370956
0.245632066
0.248240954
0.247914843
0.245958177
0.241066511
0.236174846
0.230957070
0.226717627
0.222478184
0.219543185
0.213347076
0.207477077
0.199976524
0.193454304
0.188236528
0.185301529
0.184323196
0.185301529
0.186605973
0.187258195
0.188236528
0.188562639
0.189540972
0.194106526
0.198345969
0.204542078
0.210738188
0.215303742
0.218564852
0.222152073
0.225739294
0.229978737
0.234218180
0.238783734
0.242044845
0.242697067
0.240740400
0.236827068
0.233239847
0.227695960
0.222804295
0.219543185
0.215629853
0.211064299
0.204542078
0.197041525
0.190845416
0.185627640
0.181062086
0.179431531
0.180735975
0.182040419
0.181714308
0.183344863
0.183670974
0.184975418
0.188562639
0.192149860
0.198019858
0.203563745
0.209759854
0.213347076
0.216934297
0.219869296
0.223782628
0.228022071
0.232261514
0.235196513
0.238131512
0.236174846
0.232913736
0.228022071
0.223456517
0.218890963
0.214651520
0.211064299
0.206172633
0.201933190
0.194106526
0.187584306
0.180083753
0.176496531
0.174213754
0.175192087
0.176170420
0.177148753
0.178453197
0.178779308
0.179757642
0.182040419
0.185627640
0.191171527
0.197041525
0.202911523
0.207477077
0.211390410
0.214977631
0.217586519
0.221173740
0.226391516
0.230304848
0.232261514
0.233239847
0.230630959
0.226391516
0.222152073
0.216608186
0.212042632
0.209107632
0.205194300
0.200302635
0.194432637
0.187584306
0.180735975
0.175518198
0.172257088
0.173235421
0.172909310
0.176170420
0.176822642
0.177800975
0.178453197
0.180735975
0.184323196
0.189867083
0.196715414
0.202259301
0.208129299
0.213020965
0.216608186
0.220521518
0.224108739
0.229326515
0.234544291
0.237805401
0.238783734
0.238131512
0.234544291
0.230957070
0.226391516
0.221825962
0.219217074
0.214651520
0.211390410
0.204868189
0.199976524
0.193128193
0.187584306
0.183997085
0.183670974
0.184649307
0.186605973
0.187584306
0.188888750
0.190193194
0.192149860
0.195410970
0.200302635
0.207150966
0.213020965
0.218890963
0.224434850
0.228348182
0.232587625
0.236174846
0.240414289
0.245632066
0.249219287
0.251828175
0.251175953
0.248567065
0.244653733
0.239762067
0.235522624
0.231283181
0.228674293
0.225087072
0.219543185
0.213020965
0.206498744
0.200302635
0.196389303
0.195084859
0.195410970
0.197041525
0.198019858
0.199324302
0.199324302
0.201607079
0.204542078
0.208455410
0.214325409
0.221173740
0.227043738
0.231609292
0.235848735
0.239435956
0.242697067
0.247262621
0.252806508
0.256719840
0.259980950
0.259980950
0.258024284
0.254110952
0.249871509
0.245632066
0.241392622
0.238457623
0.234218180
0.230630959
0.223782628
0.217586519
0.210738188
0.207150966
0.202911523
0.202911523
0.204868189
0.206172633
0.206824855
0.208129299
0.210412076
0.212368743
0.215629853
0.221173740
0.227043738
0.234218180
0.239109845
0.244327622
0.246936510
0.251502064
0.255741507
0.260307061
0.265524837
0.267807614
0.269764280
0.269438169
0.266177059
0.261611505
0.257372062
0.253132619
0.249871509
0.246284288
0.242044845
0.236827068
0.229978737
0.224108739
0.217586519
0.215629853
0.213999298
0.214651520
0.216282075
0.218564852
0.218890963
0.221499851
0.222804295
0.225413183
0.229978737
0.236500957
0.242697067
0.249219287
0.253784841
0.257698173
0.261937616
0.265198726
0.270090391
0.275308168
0.278895389
0.281178166
0.280852055
0.278569278
0.274329835
0.269764280
0.265850948
0.261611505
0.258024284
0.253784841
0.248893176
0.243023178
0.236174846
0.230304848
0.226391516
0.224760961
0.224108739
0.226065405
0.227369849
0.229326515
0.228674293
0.230630959
0.233565958
0.236827068
0.243349289
0.249219287
0.256067618
0.260633172
0.264872615
0.267155392
0.272373168
0.275634279
0.279873722
0.284765387
0.286722053
0.286069831
0.284439276
0.280525944
0.275634279
0.270090391
0.266177059
0.262589838
0.258676506
0.253458730
0.246936510
0.240088178
0.233565958
0.228022071
0.224760961
0.225087072
0.225413183
0.227043738
0.227369849
0.228348182
0.228674293
0.230957070
0.234218180
0.238783734
0.246284288
0.251828175
0.255741507
0.260633172
0.263568171
0.267155392
0.270416502
0.274655946
0.279221500
0.281830388
0.282808721
0.281178166
0.277590945
0.272699280
0.267807614
0.263242060
0.258024284
0.254763174
0.249871509
0.243349289
0.236500957
0.229652626
0.223456517
0.219543185
0.217586519
0.217586519
0.219217074
0.219543185
0.219869296
0.219869296
0.221825962
0.223782628
0.227043738
0.232587625
0.238783734
0.244001511
0.248240954
0.251502064
0.254110952
0.257698173
0.262263727
0.265198726
0.268785947
0.270090391
0.269112058
0.266177059
0.260959283
0.256393729
0.250849842
0.246610399
0.243023178
0.239109845
0.232913736
0.226391516
0.219543185
0.213020965
0.207477077
0.205194300
0.205520411
0.205846522
0.206498744
0.207803188
0.208455410
0.209433743
0.211716521
0.214977631
0.219217074
0.225087072
0.230630959
0.235196513
0.238783734
0.242044845
0.245305955
0.248567065
0.252480397
0.256719840
0.258676506
0.258024284
0.255741507
0.252480397
0.246610399
0.241718734
0.236500957
0.233565958
0.229326515
0.224108739
0.217260408
0.209759854
0.203563745
0.197367636
0.193780415
0.193780415
0.193454304
0.195737081
0.196063192
0.196715414
0.197367636
0.198998191
0.202259301
0.207150966
0.212368743
0.218238741
0.224108739
0.227695960
0.230957070
0.233892069
0.237153179
0.241718734
0.245305955
0.248893176
