# OpenSignals Text File Format. Version 1
# {"98:D3:41:FD:4F:1F": {"position": 0, "device": "bitalino_rev", "device name": "98:D3:41:FD:4F:1F", "device connection": "BTH98:D3:41:FD:4F:1F", "sampling rate": 10, "resolution": [4, 1, 1, 1, 1, 10], "firmware version": 1281, "comments": "", "keywords": "", "mode": 2, "sync interval": 2, "date": "2021-4-12", "time": "12:54:54.97", "channels": [5], "sensor": ["ACCBITREV"], "label": ["A5"], "column": ["nSeq", "I1", "I2", "O1", "O2", "A5"], "special": [{}], "digital IO": [0, 0, 1, 1]}}
# EndOfHeader
10	1	0	0	0	537	
11	0	0	0	0	536	
12	0	0	0	0	513	
13	0	0	0	0	541	
14	0	0	0	0	552	
15	0	0	0	0	552	
0	0	0	0	0	545	
1	0	0	0	0	565	
2	0	0	0	0	544	
3	0	0	0	0	559	
4	0	0	0	0	528	
5	0	0	0	0	530	
6	0	0	0	0	503	
7	0	0	0	0	528	
8	0	0	0	0	528	
9	0	0	0	0	527	
10	0	0	0	0	536	
11	0	0	0	0	550	
12	0	0	0	0	541	
13	0	0	0	0	520	
14	0	0	0	0	503	
15	0	0	0	0	567	
0	0	0	0	0	555	
1	0	0	0	0	535	
2	0	0	0	0	527	
3	0	0	0	0	568	
4	0	0	0	0	543	
5	0	0	0	0	532	
6	0	0	0	0	516	
7	0	0	0	0	523	
8	0	0	0	0	493	
9	0	0	0	0	498	
10	0	0	0	0	526	
11	0	0	0	0	563	
12	0	0	0	0	534	
13	0	0	0	0	523	
14	0	0	0	0	493	
15	0	0	0	0	509	
0	0	0	0	0	540	
1	0	0	0	0	584	
2	0	0	0	0	547	
3	0	0	0	0	132	
4	0	0	0	0	560	
5	0	0	0	0	495	
6	0	0	0	0	549	
7	0	0	0	0	448	
8	0	0	0	0	549	
9	0	0	0	0	506	
10	0	0	0	0	556	
11	0	0	0	0	456	
12	0	0	0	0	575	
13	0	0	0	0	454	
14	0	0	0	0	464	
15	0	0	0	0	460	
0	0	0	0	0	481	
1	0	0	0	0	407	
2	0	0	0	0	424	
3	0	0	0	0	476	
4	0	0	0	0	437	
5	0	0	0	0	466	
6	0	0	0	0	467	
7	0	0	0	0	541	
8	0	0	0	0	510	
9	0	0	0	0	564	
10	0	0	0	0	514	
11	0	0	0	0	530	
12	0	0	0	0	551	
13	0	0	0	0	504	
14	0	0	0	0	491	
15	0	0	0	0	485	
0	0	0	0	0	535	
1	0	0	0	0	505	
2	0	0	0	0	499	
3	0	0	0	0	536	
4	0	0	0	0	563	
5	0	0	0	0	493	
6	0	0	0	0	512	
7	0	0	0	0	521	
8	0	0	0	0	520	
9	0	0	0	0	514	
10	0	0	0	0	500	
11	0	0	0	0	511	
12	0	0	0	0	485	
13	0	0	0	0	321	
14	0	0	0	0	639	
15	0	0	0	0	584	
0	0	0	0	0	543	
1	0	0	0	0	540	
2	0	0	0	0	442	
3	0	0	0	0	487	
4	0	0	0	0	471	
5	0	0	0	0	479	
6	0	0	0	0	498	
7	0	0	0	0	429	
8	0	0	0	0	433	
9	0	0	0	0	489	
10	0	0	0	0	477	
11	0	0	0	0	444	
12	0	0	0	0	476	
13	0	0	0	0	489	
14	0	0	0	0	496	
15	0	0	0	0	468	
0	0	0	0	0	447	
1	0	0	0	0	516	
2	0	0	0	0	456	
3	0	0	0	0	460	
4	0	0	0	0	457	
5	0	0	0	0	458	
6	0	0	0	0	464	
7	0	0	0	0	488	
8	0	0	0	1	503	
9	0	0	0	1	447	
10	0	0	0	1	484	
11	0	0	0	0	422	
12	0	0	0	0	521	
13	0	0	0	0	493	
14	0	0	0	0	428	
15	0	0	0	0	485	
0	0	0	0	0	484	
1	0	0	0	0	463	
2	0	0	0	0	438	
3	0	0	0	0	471	
4	0	0	0	0	504	
5	0	0	0	0	433	
6	0	0	0	0	426	
7	0	0	0	0	423	
8	0	0	0	0	433	
9	0	0	0	0	437	
10	0	0	0	0	470	
11	0	0	0	0	482	
12	0	0	0	0	445	
13	0	0	0	0	459	
14	0	0	0	0	381	
15	0	0	0	0	465	
0	0	0	0	0	399	
1	0	0	0	0	469	
2	0	0	0	0	423	
3	0	0	0	0	490	
4	0	0	0	0	455	
5	0	0	0	0	514	
6	0	0	0	0	477	
7	0	0	0	0	448	
8	0	0	0	0	471	
9	0	0	0	0	464	
10	0	0	0	0	430	
11	0	0	0	0	462	
12	0	0	0	0	439	
13	0	0	0	0	499	
14	0	0	0	0	429	
15	0	0	0	0	447	
0	0	0	0	0	409	
1	0	0	0	0	521	
2	0	0	0	0	454	
3	0	0	0	0	456	
4	0	0	0	0	459	
5	0	0	0	0	469	
6	0	0	0	0	465	
7	0	0	0	0	472	
8	0	0	0	0	467	
9	0	0	0	0	466	
10	0	0	0	0	462	
11	0	0	0	0	461	
12	0	0	0	0	357	
13	0	0	0	0	530	
14	0	0	0	0	430	
15	0	0	0	0	522	
0	0	0	0	0	492	
1	0	0	0	0	440	
2	0	0	0	1	486	
3	0	0	0	1	488	
4	0	0	0	1	469	
5	0	0	0	0	513	
6	0	0	0	0	498	
7	0	0	0	0	513	
8	0	0	0	0	493	
9	0	0	0	0	350	
10	0	0	0	0	465	
11	0	0	0	0	487	
12	0	0	0	0	463	
13	0	0	0	0	482	
14	0	0	0	0	453	
15	0	0	0	0	480	
0	0	0	0	0	477	
1	0	0	0	0	507	
2	0	0	0	0	442	
3	0	0	0	0	403	
4	0	0	0	0	373	
5	0	0	0	0	338	
6	0	0	0	0	473	
7	0	0	0	0	451	
8	0	0	0	0	463	
9	0	0	0	0	449	
10	0	0	0	0	458	
11	0	0	0	0	472	
12	0	0	0	0	457	
13	0	0	0	0	462	
14	0	0	0	0	457	
15	0	0	0	0	464	
0	0	0	0	0	455	
1	0	0	0	0	466	
2	0	0	0	0	459	
3	0	0	0	0	467	
4	0	0	0	0	456	
5	0	0	0	0	467	
6	0	0	0	0	455	
7	0	0	0	0	470	
8	0	0	0	0	454	
9	0	0	0	0	475	
10	0	0	0	0	465	
11	0	0	0	0	488	
12	0	0	0	0	469	
13	0	0	0	0	475	
14	0	0	0	1	470	
15	0	0	0	1	479	
0	0	0	0	1	483	
1	0	0	0	0	479	
2	0	0	0	0	469	
3	0	0	0	0	480	
4	0	0	0	0	449	
5	0	0	0	0	469	
6	0	0	0	0	444	
7	0	0	0	0	451	
8	0	0	0	0	460	
9	0	0	0	0	463	
10	0	0	0	0	455	
11	0	0	0	0	467	
12	0	0	0	0	491	
13	0	0	0	0	468	
14	0	0	0	0	462	
15	0	0	0	0	496	
0	0	0	0	0	409	
1	0	0	0	0	505	
2	0	0	0	1	519	
3	0	0	0	1	467	
4	0	0	0	1	495	
5	0	0	0	1	487	
6	0	0	0	0	469	
7	0	0	0	0	475	
8	0	0	0	0	496	
9	0	0	0	0	506	
10	0	0	0	0	475	
11	0	0	0	0	530	
12	0	0	0	0	516	
13	0	0	0	0	500	
14	0	0	0	0	520	
15	0	0	0	0	530	
0	0	0	0	0	527	
1	0	0	0	0	513	
2	0	0	0	0	494	
3	0	0	0	0	528	
4	0	0	0	0	464	
5	0	0	0	0	495	
6	0	0	0	0	488	
7	0	0	0	0	491	
8	0	0	0	0	491	
9	0	0	0	0	487	
10	0	0	0	0	509	
11	0	0	0	0	484	
12	0	0	0	0	479	
13	0	0	0	0	503	
14	0	0	0	0	488	
15	0	0	0	0	497	
0	0	0	0	0	479	
1	0	0	0	0	503	
2	0	0	0	0	493	
3	0	0	0	0	491	
4	0	0	0	0	502	
5	0	0	0	0	518	
6	0	0	0	0	519	
7	0	0	0	0	524	
8	0	0	0	0	498	
9	0	0	0	0	502	
10	0	0	0	0	487	
11	0	0	0	0	480	
12	0	0	0	0	465	
13	0	0	0	0	473	
14	0	0	0	0	488	
15	0	0	0	0	511	
0	0	0	0	0	504	
1	0	0	0	0	361	
2	0	0	0	0	518	
3	0	0	0	0	618	
4	0	0	0	0	475	
5	0	0	0	0	374	
6	0	0	0	0	499	
7	0	0	0	0	520	
8	0	0	0	0	515	
9	0	0	0	0	525	
10	0	0	0	0	444	
11	0	0	0	0	508	
12	0	0	0	0	514	
13	0	0	0	0	515	
14	0	0	0	0	511	
15	0	0	0	0	386	
0	0	0	0	0	550	
1	0	0	0	0	534	
2	0	0	0	0	494	
3	0	0	0	0	434	
4	0	0	0	0	522	
5	0	0	0	0	383	
6	0	0	0	0	520	
7	0	0	0	0	503	
8	0	0	0	0	519	
9	0	0	0	0	671	
10	0	0	0	0	494	
11	0	0	0	0	511	
12	0	0	0	0	489	
13	0	0	0	0	414	
14	0	0	0	0	529	
15	0	0	0	0	512	
0	0	0	0	0	482	
1	0	0	0	0	524	
2	0	0	0	0	506	
3	0	0	0	0	514	
4	0	0	0	0	546	
5	0	0	0	0	493	
6	0	0	0	0	408	
7	0	0	0	0	551	
8	0	0	0	0	481	
9	0	0	0	0	513	
10	0	0	0	0	553	
11	0	0	0	0	431	
12	0	0	0	0	508	
13	0	0	0	0	454	
14	0	0	0	0	451	
15	0	0	0	0	553	
0	0	0	0	0	519	
1	0	0	0	0	522	
2	0	0	0	0	537	
3	0	0	0	0	521	
4	0	0	0	0	492	
5	0	0	0	0	449	
6	0	0	0	0	472	
7	0	0	0	0	279	
8	0	0	0	0	472	
9	0	0	0	0	618	
10	0	0	0	0	485	
11	0	0	0	0	465	
12	0	0	0	0	463	
13	0	0	0	0	494	
14	0	0	0	0	463	
15	0	0	0	0	510	
0	0	0	0	0	496	
1	0	0	0	0	614	
2	0	0	0	0	482	
3	0	0	0	0	511	
4	0	0	0	0	510	
5	0	0	0	0	412	
6	0	0	0	0	503	
7	0	0	0	0	456	
8	0	0	0	0	434	
9	0	0	0	0	439	
10	0	0	0	0	497	
11	0	0	0	0	449	
12	0	0	0	0	472	
13	0	0	0	0	478	
14	0	0	0	0	486	
15	0	0	0	0	524	
0	0	0	0	0	492	
1	0	0	0	0	490	
2	0	0	0	0	472	
3	0	0	0	0	468	
4	0	0	0	0	460	
5	0	0	0	0	540	
6	0	0	0	0	503	
7	0	0	0	0	532	
8	0	0	0	0	495	
9	0	0	0	0	536	
10	0	0	0	0	410	
11	0	0	0	0	399	
12	0	0	0	0	566	
13	0	0	0	0	570	
14	0	0	0	0	509	
15	0	0	0	0	497	
0	0	0	0	0	487	
1	0	0	0	0	506	
2	0	0	0	0	481	
3	0	0	0	0	506	
4	0	0	0	0	495	
5	0	0	0	0	361	
6	0	0	0	0	508	
7	0	0	0	0	615	
8	0	0	0	0	468	
9	0	0	0	0	521	
10	0	0	0	0	473	
11	0	0	0	0	497	
12	0	0	0	0	481	
13	0	0	0	0	483	
14	0	0	0	0	496	
15	0	0	0	0	518	
0	0	0	0	0	463	
1	0	0	0	0	522	
2	0	0	0	0	529	
3	0	0	0	0	554	
4	0	0	0	0	525	
5	0	0	0	0	536	
6	0	0	0	0	523	
7	0	0	0	0	534	
8	0	0	0	0	525	
9	0	0	0	0	506	
10	0	0	0	0	541	
11	0	0	0	0	519	
12	0	0	0	0	467	
13	0	0	0	0	509	
14	0	0	0	0	491	
15	0	0	0	0	517	
0	0	0	0	0	487	
1	0	0	0	0	527	
2	0	0	0	0	486	
3	0	0	0	0	514	
4	0	0	0	0	497	
5	0	0	0	0	505	
6	0	0	0	0	502	
7	0	0	0	0	509	
8	0	0	0	0	504	
9	0	0	0	0	497	
10	0	0	0	0	488	
11	0	0	0	0	498	
12	0	0	0	0	489	
13	0	0	0	0	508	
14	0	0	0	0	472	
15	0	0	0	0	513	
0	0	0	0	0	495	
1	0	0	0	0	495	
2	0	0	0	0	471	
3	0	0	0	0	472	
4	0	0	0	0	459	
5	0	0	0	0	470	
6	0	0	0	0	457	
7	0	0	0	0	463	
8	0	0	0	0	456	
9	0	0	0	0	466	
10	0	0	0	0	452	
11	0	0	0	0	467	
12	0	0	0	0	453	
13	0	0	0	0	383	
14	0	0	0	0	480	
15	0	0	0	0	430	
0	0	0	0	0	417	
1	0	0	0	0	514	
2	0	0	0	0	504	
3	0	0	0	0	500	
4	0	0	0	0	440	
5	0	0	0	0	499	
6	0	0	0	0	538	
7	0	0	0	0	527	
8	0	0	0	0	494	
9	0	0	0	0	496	
10	0	0	0	0	847	
11	0	0	0	0	521	
12	0	0	0	0	527	
13	0	0	0	0	434	
14	0	0	0	0	489	
15	0	0	0	0	604	
0	0	0	0	0	590	
1	0	0	0	0	577	
2	0	0	0	0	552	
3	0	0	0	0	581	
4	0	0	0	0	572	
5	0	0	0	0	548	
6	0	0	0	0	495	
7	0	0	0	0	514	
8	0	0	0	0	533	
9	0	0	0	0	548	
10	0	0	0	0	539	
11	0	0	0	0	549	
12	0	0	0	0	538	
13	0	0	0	0	527	
14	0	0	0	0	423	
15	0	0	0	0	556	
0	0	0	0	0	563	
1	0	0	0	0	632	
2	0	0	0	0	546	
3	0	0	0	0	292	
4	0	0	0	0	415	
5	0	0	0	0	237	
6	0	0	0	0	407	
7	0	0	0	0	534	
8	0	0	0	0	462	
9	0	0	0	0	538	
10	0	0	0	0	436	
11	0	0	0	0	402	
12	0	0	0	0	328	
13	0	0	0	0	455	
14	0	0	0	0	430	
15	0	0	0	0	340	
0	0	0	0	0	440	
1	0	0	0	0	504	
2	0	0	0	0	400	
3	0	0	0	0	463	
4	0	0	0	0	563	
5	0	0	0	0	471	
6	0	0	0	0	422	
7	0	0	0	0	467	
8	0	0	0	0	444	
9	0	0	0	0	480	
10	0	0	0	0	381	
11	0	0	0	0	508	
12	0	0	0	0	436	
13	0	0	0	0	435	
14	0	0	0	0	428	
15	0	0	0	0	443	
0	0	0	0	0	433	
1	0	0	0	0	422	
2	0	0	0	0	441	
3	0	0	0	0	433	
4	0	0	0	0	428	
5	0	0	0	0	449	
6	0	0	0	0	438	
7	0	0	0	0	461	
8	0	0	0	0	497	
9	0	0	0	0	462	
10	0	0	0	0	447	
11	0	0	0	0	480	
12	0	0	0	0	465	
13	0	0	0	0	502	
14	0	0	0	0	447	
15	0	0	0	0	489	
0	0	0	0	0	467	
1	0	0	0	0	472	
2	0	0	0	0	464	
3	0	0	0	0	477	
4	0	0	0	0	482	
5	0	0	0	0	492	
6	0	0	0	0	496	
7	0	0	0	0	454	
8	0	0	0	0	444	
9	0	0	0	0	446	
10	0	0	0	0	520	
11	0	0	0	0	547	
12	0	0	0	0	518	
13	0	0	0	0	610	
14	0	0	0	0	521	
15	0	0	0	0	470	
0	0	0	0	0	354	
1	0	0	0	0	503	
2	0	0	0	0	641	
3	0	0	0	0	484	
4	0	0	0	0	515	
5	0	0	0	0	462	
6	0	0	0	0	401	
7	0	0	0	0	558	
8	0	0	0	0	578	
9	0	0	0	0	477	
10	0	0	0	0	454	
11	0	0	0	0	478	
12	0	0	0	0	566	
13	0	0	0	0	525	
14	0	0	0	0	556	
15	0	0	0	0	558	
0	0	0	0	0	496	
1	0	0	0	0	499	
2	0	0	0	0	588	
3	0	0	0	0	429	
4	0	0	0	0	560	
5	0	0	0	0	609	
6	0	0	0	0	418	
7	0	0	0	0	455	
8	0	0	0	0	625	
9	0	0	0	0	567	
10	0	0	0	0	448	
11	0	0	0	0	577	
12	0	0	0	0	534	
13	0	0	0	0	665	
14	0	0	0	0	575	
15	0	0	0	0	542	
0	0	0	0	0	619	
1	0	0	0	0	562	
2	0	0	0	0	462	
3	0	0	0	0	571	
4	0	0	0	0	445	
5	0	0	0	0	485	
6	0	0	0	0	497	
7	0	0	0	0	550	
8	0	0	0	0	590	
9	0	0	0	0	554	
10	0	0	0	0	469	
11	0	0	0	0	455	
12	0	0	0	0	483	
13	0	0	0	0	525	
14	0	0	0	0	331	
15	0	0	0	0	464	
0	0	0	0	0	473	
1	0	0	0	0	503	
2	0	0	0	0	479	
3	0	0	0	0	486	
4	0	0	0	0	473	
5	0	0	0	0	507	
6	0	0	0	0	468	
7	0	0	0	0	479	
8	0	0	0	0	466	
9	0	0	0	0	468	
10	0	0	0	0	455	
11	0	0	0	0	478	
12	0	0	0	0	452	
13	0	0	0	0	496	
14	0	0	0	0	462	
15	0	0	0	0	476	
0	0	0	0	0	470	
1	0	0	0	0	471	
2	0	0	0	0	472	
3	0	0	0	0	473	
4	0	0	0	0	490	
5	0	0	0	0	488	
6	0	0	0	0	481	
7	0	0	0	0	481	
8	0	0	0	0	473	
9	0	0	0	0	482	
10	0	0	0	0	452	
11	0	0	0	0	496	
12	0	0	0	0	472	
13	0	0	0	0	478	
14	0	0	0	0	479	
15	0	0	0	0	495	
0	0	0	0	0	485	
1	0	0	0	0	496	
2	0	0	0	0	487	
3	0	0	0	0	504	
4	0	0	0	0	496	
5	0	0	0	0	497	
6	0	0	0	0	496	
7	0	0	0	0	497	
8	0	0	0	0	487	
9	0	0	0	0	500	
10	0	0	0	0	480	
11	0	0	0	0	497	
12	0	0	0	0	484	
13	0	0	0	0	495	
14	0	0	0	0	468	
15	0	0	0	0	487	
0	0	0	0	0	479	
1	0	0	0	0	494	
2	0	0	0	0	489	
3	0	0	0	0	505	
4	0	0	0	0	481	
5	0	0	0	0	492	
6	0	0	0	0	485	
7	0	0	0	0	361	
8	0	0	0	0	492	
9	0	0	0	0	503	
10	0	0	0	0	495	
11	0	0	0	0	498	
12	0	0	0	0	504	
13	0	0	0	0	515	
14	0	0	0	0	498	
15	0	0	0	0	512	
0	0	0	0	0	504	
1	0	0	0	0	488	
2	0	0	0	0	492	
3	0	0	0	0	489	
4	0	0	0	0	456	
5	0	0	0	0	456	
6	0	0	0	0	495	
7	0	0	0	0	479	
8	0	0	0	0	484	
9	0	0	0	0	500	
10	0	0	0	0	479	
11	0	0	0	0	512	
12	0	0	0	0	487	
13	0	0	0	0	493	
14	0	0	0	0	482	
15	0	0	0	0	498	
0	0	0	0	0	485	
1	0	0	0	0	495	
2	0	0	0	0	480	
3	0	0	0	0	493	
4	0	0	0	0	483	
5	0	0	0	0	494	
6	0	0	0	0	477	
7	0	0	0	0	492	
8	0	0	0	0	485	
9	0	0	0	0	505	
10	0	0	0	0	494	
11	0	0	0	0	510	
12	0	0	0	0	496	
13	0	0	0	0	514	
14	0	0	0	0	510	
15	0	0	0	0	518	
0	0	0	0	0	518	
1	0	0	0	0	499	
2	0	0	0	0	480	
3	0	0	0	0	483	
4	0	0	0	0	472	
5	0	0	0	0	499	
6	0	0	0	0	486	
7	0	0	0	0	499	
8	0	0	0	0	498	
9	0	0	0	0	499	
10	0	0	0	0	483	
11	0	0	0	0	494	
12	0	0	0	0	485	
13	0	0	0	0	497	
14	0	0	0	0	482	
15	0	0	0	0	495	
0	0	0	0	0	494	
1	0	0	0	0	504	
2	0	0	0	0	492	
3	0	0	0	0	503	
4	0	0	0	0	491	
5	0	0	0	0	508	
6	0	0	0	0	499	
7	0	0	0	0	512	
8	0	0	0	0	503	
9	0	0	0	0	514	
10	0	0	0	0	508	
11	0	0	0	0	517	
12	0	0	0	0	509	
13	0	0	0	0	520	
14	0	0	0	0	508	
15	0	0	0	0	524	
0	0	0	0	0	513	
1	0	0	0	0	520	
2	0	0	0	0	504	
3	0	0	0	0	507	
4	0	0	0	0	482	
5	0	0	0	0	484	
6	0	0	0	0	463	
7	0	0	0	0	479	
8	0	0	0	0	472	
9	0	0	0	0	481	
10	0	0	0	0	468	
11	0	0	0	0	477	
12	0	0	0	0	467	
13	0	0	0	0	476	
14	0	0	0	0	465	
15	0	0	0	0	478	
0	0	0	0	0	465	
1	0	0	0	0	479	
2	0	0	0	0	465	
3	0	0	0	0	479	
4	0	0	0	0	464	
5	0	0	0	0	479	
6	0	0	0	0	467	
7	0	0	0	0	478	
8	0	0	0	0	466	
9	0	0	0	0	479	
10	0	0	0	0	466	
11	0	0	0	0	477	
12	0	0	0	0	465	
13	0	0	0	0	476	
14	0	0	0	0	466	
15	0	0	0	0	478	
0	0	0	0	1	477	
1	0	0	0	1	478	
2	0	0	0	1	479	
3	0	0	0	0	492	
4	0	0	0	0	481	
5	0	0	0	0	496	
6	0	0	0	0	487	
7	0	0	0	0	502	
8	0	0	0	0	504	
9	0	0	0	0	498	
10	0	0	0	0	502	
11	0	0	0	0	503	
12	0	0	0	0	491	
13	0	0	0	0	503	
14	0	0	0	0	491	
15	0	0	0	0	504	
0	0	0	0	0	492	
1	0	0	0	0	504	
2	0	0	0	0	491	
3	0	0	0	0	502	
4	0	0	0	0	491	
5	0	0	0	0	503	
6	0	0	0	0	492	
7	0	0	0	0	504	
8	0	0	0	0	494	
9	0	0	0	0	505	
10	0	0	0	0	495	
11	0	0	0	0	500	
12	0	0	0	0	489	
13	0	0	0	0	500	
14	0	0	0	0	487	
15	0	0	0	0	499	
0	0	0	0	0	489	
1	0	0	0	0	501	
2	0	0	0	0	490	
3	0	0	0	0	500	
4	0	0	0	0	488	
5	0	0	0	0	501	
6	0	0	0	0	489	
7	0	0	0	0	501	
8	0	0	0	0	489	
9	0	0	0	0	501	
10	0	0	0	0	489	
11	0	0	0	0	502	
12	0	0	0	0	489	
13	0	0	0	0	500	
14	0	0	0	0	490	
15	0	0	0	0	503	
0	0	0	0	0	492	
1	0	0	0	0	504	
2	0	0	0	0	494	
3	0	0	0	0	510	
4	0	0	0	0	489	
5	0	0	0	0	493	
6	0	0	0	0	481	
7	0	0	0	0	485	
8	0	0	0	0	468	
9	0	0	0	0	479	
10	0	0	0	0	468	
11	0	0	0	0	479	
12	0	0	0	0	468	
13	0	0	0	0	480	
14	0	0	0	0	470	
15	0	0	0	0	480	
0	0	0	0	0	469	
1	0	0	0	0	480	
2	0	0	0	0	468	
3	0	0	0	0	480	
4	0	0	0	0	466	
5	0	0	0	0	480	
6	0	0	0	0	468	
7	0	0	0	0	479	
8	0	0	0	0	467	
9	0	0	0	0	480	
10	0	0	0	0	467	
11	0	0	0	0	480	
12	0	0	0	0	467	
13	0	0	0	0	478	
14	0	0	0	0	466	
15	0	0	0	0	478	
0	0	0	0	1	476	
1	0	0	0	1	472	
2	0	0	0	1	478	
3	0	0	0	1	473	
4	0	0	0	0	465	
5	0	0	0	0	477	
6	0	0	0	0	465	
7	0	0	0	0	476	
8	0	0	0	0	463	
9	0	0	0	0	477	
10	0	0	0	0	464	
11	0	0	0	0	476	
12	0	0	0	0	463	
13	0	0	0	0	476	
14	0	0	0	0	464	
15	0	0	0	0	476	
0	0	0	0	0	464	
1	0	0	0	0	476	
2	0	0	0	0	464	
3	0	0	0	0	476	
4	0	0	0	0	464	
5	0	0	0	1	472	
6	0	0	0	1	475	
7	0	0	0	1	472	
8	0	0	0	1	475	
9	0	0	0	0	478	
10	0	0	0	0	470	
11	0	0	0	0	486	
12	0	0	0	0	478	
13	0	0	0	0	492	
14	0	0	0	0	485	
15	0	0	0	0	491	
0	0	0	0	0	489	
1	0	0	0	0	503	
2	0	0	0	0	485	
3	0	0	0	0	499	
4	0	0	0	0	487	
5	0	0	0	0	500	
6	0	0	0	0	491	
7	0	0	0	0	502	
8	0	0	0	0	488	
9	0	0	0	0	498	
10	0	0	0	0	488	
11	0	0	0	0	499	
12	0	0	0	0	488	
13	0	0	0	0	502	
14	0	0	0	0	487	
15	0	0	0	0	500	
0	0	0	0	0	490	
1	0	0	0	0	503	
2	0	0	0	0	490	
3	0	0	0	0	507	
4	0	0	0	0	494	
5	0	0	0	0	504	
6	0	0	0	0	489	
7	0	0	0	0	498	
8	0	0	0	0	489	
9	0	0	0	0	500	
10	0	0	0	0	491	
11	0	0	0	0	501	
12	0	0	0	0	487	
13	0	0	0	0	499	
14	0	0	0	0	488	
15	0	0	0	0	500	
0	0	0	0	0	480	
1	0	0	0	0	482	
2	0	0	0	0	471	
3	0	0	0	0	472	
4	0	0	0	0	474	
5	0	0	0	0	464	
6	0	0	0	0	441	
7	0	0	0	0	460	
8	0	0	0	0	445	
9	0	0	0	0	440	
10	0	0	0	0	423	
11	0	0	0	0	427	
12	0	0	0	0	414	
13	0	0	0	0	424	
14	0	0	0	0	416	
15	0	0	0	0	427	
0	0	0	0	0	414	
1	0	0	0	0	426	
2	0	0	0	0	415	
3	0	0	0	0	427	
4	0	0	0	0	416	
5	0	0	0	0	428	
6	0	0	0	0	414	
7	0	0	0	0	427	
8	0	0	0	0	415	
9	0	0	0	0	427	
10	0	0	0	0	414	
11	0	0	0	1	424	
12	0	0	0	1	431	
13	0	0	0	1	427	
14	0	0	0	0	419	
15	0	0	0	0	434	
0	0	0	0	0	417	
1	0	0	0	0	430	
2	0	0	0	0	416	
3	0	0	0	0	428	
4	0	0	0	0	417	
5	0	0	0	0	430	
6	0	0	0	0	418	
7	0	0	0	0	430	
8	0	0	0	0	417	
9	0	0	0	0	430	
10	0	0	0	0	417	
11	0	0	0	0	429	
12	0	0	0	0	415	
13	0	0	0	0	408	
14	0	0	0	0	409	
15	0	0	0	0	434	
0	0	0	0	0	439	
1	0	0	0	0	468	
2	0	0	0	1	472	
3	0	0	0	1	480	
4	0	0	0	1	489	
5	0	0	0	1	485	
6	0	0	0	0	490	
7	0	0	0	0	506	
8	0	0	0	0	495	
9	0	0	0	0	512	
10	0	0	0	0	501	
11	0	0	0	0	516	
12	0	0	0	0	503	
13	0	0	0	0	514	
14	0	0	0	0	503	
15	0	0	0	0	519	
0	0	0	0	0	508	
1	0	0	0	0	518	
2	0	0	0	0	505	
3	0	0	0	0	517	
4	0	0	0	0	513	
5	0	0	0	0	523	
6	0	0	0	0	518	
7	0	0	0	0	518	
8	0	0	0	0	503	
9	0	0	0	0	518	
10	0	0	0	0	517	
11	0	0	0	0	529	
12	0	0	0	0	500	
13	0	0	0	0	504	
14	0	0	0	0	528	
15	0	0	0	0	531	
0	0	0	0	0	511	
1	0	0	0	0	511	
2	0	0	0	0	501	
3	0	0	0	0	527	
4	0	0	0	0	514	
5	0	0	0	0	524	
6	0	0	0	0	502	
7	0	0	0	0	513	
8	0	0	0	0	508	
9	0	0	0	0	526	
10	0	0	0	0	513	
11	0	0	0	0	513	
12	0	0	0	0	509	
13	0	0	0	0	508	
14	0	0	0	0	486	
15	0	0	0	0	481	
0	0	0	0	0	459	
1	0	0	0	0	479	
2	0	0	0	0	477	
3	0	0	0	0	480	
4	0	0	0	0	465	
5	0	0	0	0	486	
6	0	0	0	0	477	
7	0	0	0	0	490	
8	0	0	0	0	322	
9	0	0	0	0	520	
10	0	0	0	0	499	
11	0	0	0	0	505	
12	0	0	0	0	486	
13	0	0	0	0	509	
14	0	0	0	0	515	
15	0	0	0	0	542	
0	0	0	0	0	535	
1	0	0	0	0	568	
2	0	0	0	0	556	
3	0	0	0	0	567	
4	0	0	0	0	565	
5	0	0	0	0	577	
6	0	0	0	0	563	
7	0	0	0	0	580	
8	0	0	0	0	572	
9	0	0	0	0	584	
10	0	0	0	0	562	
11	0	0	0	0	579	
12	0	0	0	0	566	
13	0	0	0	0	569	
14	0	0	0	0	561	
15	0	0	0	0	568	
0	0	0	0	0	560	
1	0	0	0	0	571	
2	0	0	0	0	564	
3	0	0	0	0	572	
4	0	0	0	0	566	
5	0	0	0	0	574	
6	0	0	0	0	560	
7	0	0	0	0	571	
8	0	0	0	0	562	
9	0	0	0	1	575	
10	0	0	0	1	575	
11	0	0	0	1	572	
12	0	0	0	0	569	
13	0	0	0	0	582	
14	0	0	0	0	563	
15	0	0	0	0	555	
0	0	0	0	0	529	
1	0	0	0	0	536	
2	0	0	0	0	508	
3	0	0	0	0	518	
4	0	0	0	0	509	
5	0	0	0	0	516	
6	0	0	0	0	504	
7	0	0	0	0	511	
8	0	0	0	0	496	
9	0	0	0	0	508	
10	0	0	0	0	504	
11	0	0	0	0	515	
12	0	0	0	0	507	
13	0	0	0	0	490	
14	0	0	0	0	467	
15	0	0	0	0	492	
0	0	0	0	0	488	
1	0	0	0	0	485	
2	0	0	0	0	468	
3	0	0	0	0	468	
4	0	0	0	0	436	
5	0	0	0	0	452	
6	0	0	0	0	433	
7	0	0	0	0	435	
8	0	0	0	0	421	
9	0	0	0	0	435	
10	0	0	0	0	424	
11	0	0	0	0	437	
12	0	0	0	0	425	
13	0	0	0	0	438	
14	0	0	0	0	425	
15	0	0	0	0	438	
0	0	0	0	0	419	
1	0	0	0	0	425	
2	0	0	0	0	417	
3	0	0	0	0	446	
4	0	0	0	0	444	
5	0	0	0	0	463	
6	0	0	0	0	458	
7	0	0	0	0	480	
8	0	0	0	0	483	
9	0	0	0	0	495	
10	0	0	0	0	480	
11	0	0	0	0	499	
12	0	0	0	0	489	
13	0	0	0	0	501	
14	0	0	0	0	485	
15	0	0	0	0	499	
0	0	0	0	0	491	
1	0	0	0	0	501	
2	0	0	0	0	483	
3	0	0	0	0	494	
4	0	0	0	0	485	
5	0	0	0	0	499	
6	0	0	0	0	486	
7	0	0	0	0	495	
8	0	0	0	0	481	
9	0	0	0	0	495	
10	0	0	0	0	487	
11	0	0	0	0	498	
12	0	0	0	0	489	
13	0	0	0	0	498	
14	0	0	0	0	488	
15	0	0	0	0	499	
0	0	0	0	0	489	
1	0	0	0	0	500	
2	0	0	0	0	488	
3	0	0	0	0	499	
4	0	0	0	0	487	
5	0	0	0	0	492	
6	0	0	0	0	490	
7	0	0	0	0	500	
8	0	0	0	0	487	
9	0	0	0	0	510	
10	0	0	0	0	495	
11	0	0	0	0	506	
12	0	0	0	0	495	
13	0	0	0	0	504	
14	0	0	0	0	491	
15	0	0	0	0	501	
0	0	0	0	0	489	
1	0	0	0	0	503	
2	0	0	0	0	494	
3	0	0	0	0	505	
4	0	0	0	0	494	
5	0	0	0	0	505	
6	0	0	0	0	498	
7	0	0	0	0	503	
8	0	0	0	0	496	
9	0	0	0	0	508	
10	0	0	0	0	496	
11	0	0	0	0	507	
12	0	0	0	0	494	
13	0	0	0	0	506	
14	0	0	0	0	495	
15	0	0	0	0	506	
0	0	0	0	0	494	
1	0	0	0	0	505	
2	0	0	0	0	494	
3	0	0	0	0	504	
4	0	0	0	0	494	
5	0	0	0	0	504	
6	0	0	0	0	494	
7	0	0	0	0	505	
8	0	0	0	0	494	
9	0	0	0	0	504	
10	0	0	0	0	492	
11	0	0	0	0	504	
12	0	0	0	0	493	
13	0	0	0	0	500	
14	0	0	0	0	497	
15	0	0	0	0	502	
0	0	0	0	0	489	
1	0	0	0	0	500	
2	0	0	0	0	490	
3	0	0	0	0	490	
4	0	0	0	0	478	
5	0	0	0	0	490	
6	0	0	0	0	479	
7	0	0	0	0	490	
8	0	0	0	0	478	
9	0	0	0	0	490	
10	0	0	0	0	479	
11	0	0	0	0	489	
12	0	0	0	0	477	
13	0	0	0	0	488	
14	0	0	0	0	475	
15	0	0	0	0	487	
0	0	0	0	0	474	
1	0	0	0	0	485	
2	0	0	0	0	473	
3	0	0	0	0	485	
4	0	0	0	0	473	
5	0	0	0	0	485	
6	0	0	0	0	472	
7	0	0	0	0	483	
8	0	0	0	0	472	
9	0	0	0	0	484	
10	0	0	0	0	472	
11	0	0	0	0	485	
12	0	0	0	0	473	
13	0	0	0	0	484	
14	0	0	0	0	472	
15	0	0	0	0	484	
0	0	0	0	0	472	
1	0	0	0	0	484	
2	0	0	0	0	472	
3	0	0	0	0	483	
4	0	0	0	0	471	
5	0	0	0	1	480	
6	0	0	0	1	478	
7	0	0	0	1	476	
8	0	0	0	0	467	
9	0	0	0	0	476	
10	0	0	0	0	473	
11	0	0	0	0	490	
12	0	0	0	0	482	
13	0	0	0	0	501	
14	0	0	0	0	492	
15	0	0	0	0	508	
0	0	0	0	0	493	
1	0	0	0	0	509	
2	0	0	0	0	498	
3	0	0	0	0	511	
4	0	0	0	0	497	
5	0	0	0	0	507	
6	0	0	0	0	498	
7	0	0	0	0	509	
8	0	0	0	0	497	
9	0	0	0	0	507	
10	0	0	0	0	500	
11	0	0	0	0	510	
12	0	0	0	0	497	
13	0	0	0	0	508	
14	0	0	0	0	495	
15	0	0	0	0	505	
0	0	0	0	0	496	
1	0	0	0	0	508	
2	0	0	0	0	493	
3	0	0	0	0	503	
4	0	0	0	0	492	
5	0	0	0	0	506	
6	0	0	0	0	492	
7	0	0	0	0	504	
8	0	0	0	0	492	
9	0	0	0	0	502	
10	0	0	0	0	492	
11	0	0	0	0	504	
12	0	0	0	0	492	
13	0	0	0	0	502	
14	0	0	0	0	492	
15	0	0	0	0	503	
0	0	0	0	0	491	
1	0	0	0	0	502	
2	0	0	0	0	492	
3	0	0	0	0	502	
4	0	0	0	0	492	
5	0	0	0	0	503	
6	0	0	0	0	492	
7	0	0	0	0	503	
8	0	0	0	0	493	
9	0	0	0	0	503	
10	0	0	0	0	492	
11	0	0	0	0	504	
12	0	0	0	0	493	
13	0	0	0	0	504	
14	0	0	0	0	493	
15	0	0	0	0	505	
0	0	0	0	0	494	
1	0	0	0	0	505	
2	0	0	0	0	494	
3	0	0	0	0	505	
4	0	0	0	0	492	
5	0	0	0	0	504	
6	0	0	0	0	489	
7	0	0	0	0	503	
8	0	0	0	0	491	
9	0	0	0	0	503	
10	0	0	0	0	492	
11	0	0	0	0	503	
12	0	0	0	0	493	
13	0	0	0	0	504	
14	0	0	0	0	494	
15	0	0	0	0	504	
0	0	0	0	0	491	
1	0	0	0	0	504	
2	0	0	0	0	486	
3	0	0	0	0	500	
4	0	0	0	0	492	
5	0	0	0	0	498	
6	0	0	0	0	480	
7	0	0	0	0	497	
8	0	0	0	0	492	
9	0	0	0	0	506	
10	0	0	0	0	489	
11	0	0	0	0	507	
12	0	0	0	0	499	
13	0	0	0	0	506	
14	0	0	0	0	494	
15	0	0	0	0	508	
0	0	0	0	0	496	
1	0	0	0	0	508	
2	0	0	0	0	496	
3	0	0	0	0	506	
4	0	0	0	0	496	
5	0	0	0	0	508	
6	0	0	0	0	496	
7	0	0	0	0	508	
8	0	0	0	0	496	
9	0	0	0	0	508	
10	0	0	0	0	496	
11	0	0	0	0	508	
12	0	0	0	0	497	
13	0	0	0	0	509	
14	0	0	0	0	497	
15	0	0	0	0	508	
0	0	0	0	0	498	
1	0	0	0	0	508	
2	0	0	0	0	494	
3	0	0	0	0	504	
4	0	0	0	0	491	
5	0	0	0	0	504	
6	0	0	0	0	494	
7	0	0	0	0	504	
8	0	0	0	0	490	
9	0	0	0	0	501	
10	0	0	0	0	488	
11	0	0	0	0	496	
12	0	0	0	0	482	
13	0	0	0	0	490	
14	0	0	0	0	479	
15	0	0	0	0	493	
0	0	0	0	0	470	
1	0	0	0	0	475	
2	0	0	0	0	462	
3	0	0	0	0	472	
4	0	0	0	0	470	
5	0	0	0	0	479	
6	0	0	0	0	467	
7	0	0	0	0	480	
8	0	0	0	0	462	
9	0	0	0	0	482	
10	0	0	0	0	473	
11	0	0	0	0	488	
12	0	0	0	0	464	
13	0	0	0	0	482	
14	0	0	0	0	470	
15	0	0	0	0	466	
0	0	0	0	0	451	
1	0	0	0	0	480	
2	0	0	0	0	474	
3	0	0	0	0	481	
4	0	0	0	0	467	
5	0	0	0	0	480	
6	0	0	0	0	457	
7	0	0	0	0	467	
8	0	0	0	0	461	
9	0	0	0	0	472	
10	0	0	0	0	461	
11	0	0	0	1	474	
12	0	0	0	1	455	
13	0	0	0	1	446	
14	0	0	0	0	442	
15	0	0	0	0	454	
0	0	0	0	0	448	
1	0	0	0	0	460	
2	0	0	0	0	454	
3	0	0	0	0	468	
4	0	0	0	0	465	
5	0	0	0	0	471	
6	0	0	0	0	464	
7	0	0	0	0	476	
8	0	0	0	0	464	
9	0	0	0	0	465	
10	0	0	0	0	466	
11	0	0	0	0	479	
12	0	0	0	0	463	
13	0	0	0	0	477	
14	0	0	0	0	470	
15	0	0	0	0	481	
0	0	0	0	1	477	
1	0	0	0	1	469	
2	0	0	0	1	470	
3	0	0	0	0	462	
4	0	0	0	0	464	
5	0	0	0	0	486	
6	0	0	0	0	497	
7	0	0	0	0	516	
8	0	0	0	0	507	
9	0	0	0	0	508	
10	0	0	0	0	488	
11	0	0	0	0	480	
12	0	0	0	0	459	
13	0	0	0	0	482	
14	0	0	0	0	476	
15	0	0	0	0	488	
0	0	0	0	0	481	
1	0	0	0	0	501	
2	0	0	0	0	498	
3	0	0	0	0	487	
4	0	0	0	0	476	
5	0	0	0	0	492	
6	0	0	0	0	483	
7	0	0	0	0	494	
8	0	0	0	0	474	
9	0	0	0	0	489	
10	0	0	0	0	479	
11	0	0	0	0	491	
12	0	0	0	0	477	
13	0	0	0	0	488	
14	0	0	0	0	472	
15	0	0	0	0	487	
0	0	0	0	0	464	
1	0	0	0	0	474	
2	0	0	0	0	466	
3	0	0	0	0	479	
4	0	0	0	0	471	
5	0	0	0	0	480	
6	0	0	0	0	472	
7	0	0	0	0	485	
8	0	0	0	0	478	
9	0	0	0	0	485	
10	0	0	0	0	467	
11	0	0	0	0	494	
12	0	0	0	0	484	
13	0	0	0	0	498	
14	0	0	0	0	491	
15	0	0	0	0	504	
0	0	0	0	0	484	
1	0	0	0	0	503	
2	0	0	0	0	483	
3	0	0	0	0	502	
4	0	0	0	0	492	
5	0	0	0	0	499	
6	0	0	0	0	491	
7	0	0	0	0	499	
8	0	0	0	0	491	
9	0	0	0	0	502	
10	0	0	0	0	490	
11	0	0	0	0	500	
12	0	0	0	0	488	
13	0	0	0	0	501	
14	0	0	0	0	488	
15	0	0	0	0	498	
0	0	0	0	0	486	
1	0	0	0	0	499	
2	0	0	0	0	489	
3	0	0	0	0	499	
4	0	0	0	0	487	
5	0	0	0	0	499	
6	0	0	0	0	487	
7	0	0	0	0	496	
8	0	0	0	0	491	
9	0	0	0	0	495	
10	0	0	0	0	485	
11	0	0	0	0	494	
12	0	0	0	0	484	
13	0	0	0	0	496	
14	0	0	0	0	483	
15	0	0	0	0	493	
0	0	0	0	0	483	
1	0	0	0	0	495	
2	0	0	0	0	483	
3	0	0	0	0	496	
4	0	0	0	0	483	
5	0	0	0	0	496	
6	0	0	0	0	488	
7	0	0	0	0	499	
8	0	0	0	0	485	
9	0	0	0	0	484	
10	0	0	0	0	451	
11	0	0	0	0	455	
12	0	0	0	0	446	
13	0	0	0	0	451	
14	0	0	0	0	435	
15	0	0	0	0	437	
0	0	0	0	0	420	
1	0	0	0	0	429	
2	0	0	0	0	422	
3	0	0	0	0	434	
4	0	0	0	0	423	
5	0	0	0	0	446	
6	0	0	0	0	449	
7	0	0	0	0	475	
8	0	0	0	0	468	
9	0	0	0	0	484	
10	0	0	0	0	477	
11	0	0	0	0	498	
12	0	0	0	0	480	
13	0	0	0	0	497	
14	0	0	0	0	484	
15	0	0	0	0	497	
0	0	0	0	0	484	
1	0	0	0	0	493	
2	0	0	0	0	484	
3	0	0	0	0	494	
4	0	0	0	0	482	
5	0	0	0	0	494	
6	0	0	0	0	483	
7	0	0	0	0	495	
8	0	0	0	0	486	
9	0	0	0	0	496	
10	0	0	0	0	484	
11	0	0	0	0	498	
12	0	0	0	0	487	
13	0	0	0	0	500	
14	0	0	0	0	488	
15	0	0	0	0	501	
0	0	0	0	0	490	
1	0	0	0	0	502	
2	0	0	0	0	491	
3	0	0	0	0	504	
4	0	0	0	0	493	
5	0	0	0	0	504	
6	0	0	0	0	493	
7	0	0	0	0	504	
8	0	0	0	0	494	
9	0	0	0	0	504	
10	0	0	0	0	494	
11	0	0	0	0	503	
12	0	0	0	0	491	
13	0	0	0	0	504	
14	0	0	0	0	490	
15	0	0	0	0	499	
0	0	0	0	0	485	
1	0	0	0	0	494	
2	0	0	0	0	484	
3	0	0	0	0	485	
4	0	0	0	0	477	
5	0	0	0	0	489	
6	0	0	0	0	476	
7	0	0	0	0	487	
8	0	0	0	0	479	
9	0	0	0	0	490	
10	0	0	0	0	473	
11	0	0	0	0	483	
12	0	0	0	0	474	
13	0	0	0	0	484	
14	0	0	0	0	472	
15	0	0	0	0	486	
0	0	0	0	0	474	
1	0	0	0	0	487	
2	0	0	0	0	477	
3	0	0	0	0	487	
4	0	0	0	0	472	
5	0	0	0	0	486	
6	0	0	0	0	488	
7	0	0	0	0	492	
8	0	0	0	0	489	
9	0	0	0	0	502	
10	0	0	0	0	494	
11	0	0	0	0	511	
12	0	0	0	0	496	
13	0	0	0	0	511	
14	0	0	0	0	496	
15	0	0	0	0	496	
0	0	0	0	0	495	
1	0	0	0	0	497	
2	0	0	0	0	487	
3	0	0	0	0	506	
4	0	0	0	0	497	
5	0	0	0	0	505	
6	0	0	0	0	493	
7	0	0	0	0	507	
8	0	0	0	0	499	
9	0	0	0	0	507	
10	0	0	0	0	496	
11	0	0	0	0	508	
12	0	0	0	0	496	
13	0	0	0	0	508	
14	0	0	0	0	499	
15	0	0	0	0	504	
0	0	0	0	0	500	
1	0	0	0	0	512	
2	0	0	0	0	497	
3	0	0	0	0	508	
4	0	0	0	0	498	
5	0	0	0	0	505	
6	0	0	0	0	502	
7	0	0	0	0	509	
8	0	0	0	0	504	
9	0	0	0	0	512	
10	0	0	0	0	503	
11	0	0	0	0	518	
12	0	0	0	0	511	
13	0	0	0	0	519	
14	0	0	0	0	508	
15	0	0	0	0	520	
0	0	0	0	0	512	
1	0	0	0	0	521	
2	0	0	0	0	511	
3	0	0	0	0	523	
4	0	0	0	0	516	
5	0	0	0	0	513	
6	0	0	0	0	512	
7	0	0	0	0	502	
8	0	0	0	0	470	
9	0	0	0	0	473	
10	0	0	0	0	455	
11	0	0	0	0	497	
12	0	0	0	0	478	
13	0	0	0	0	491	
14	0	0	0	0	547	
15	0	0	0	0	512	
0	0	0	0	0	485	
1	0	0	0	0	502	
2	0	0	0	0	499	
3	0	0	0	0	524	
4	0	0	0	0	515	
5	0	0	0	0	527	
6	0	0	0	0	521	
7	0	0	0	0	539	
8	0	0	0	0	536	
9	0	0	0	0	555	
10	0	0	0	0	550	
11	0	0	0	0	559	
12	0	0	0	0	549	
13	0	0	0	0	562	
14	0	0	0	0	555	
15	0	0	0	0	565	
0	0	0	0	0	558	
1	0	0	0	0	568	
2	0	0	0	0	559	
3	0	0	0	0	571	
4	0	0	0	0	558	
5	0	0	0	0	568	
6	0	0	0	0	560	
7	0	0	0	0	572	
8	0	0	0	0	556	
9	0	0	0	0	568	
10	0	0	0	0	558	
11	0	0	0	0	566	
12	0	0	0	0	557	
13	0	0	0	0	570	
14	0	0	0	0	559	
15	0	0	0	0	570	
0	0	0	0	0	558	
1	0	0	0	1	563	
2	0	0	0	1	572	
3	0	0	0	1	567	
4	0	0	0	0	559	
5	0	0	0	0	569	
6	0	0	0	0	557	
7	0	0	0	0	562	
8	0	0	0	0	541	
9	0	0	0	0	546	
10	0	0	0	0	529	
11	0	0	0	0	539	
12	0	0	0	0	526	
13	0	0	0	0	538	
14	0	0	0	0	526	
15	0	0	0	0	538	
0	0	0	0	0	524	
1	0	0	0	0	538	
2	0	0	0	0	527	
3	0	0	0	0	537	
4	0	0	0	0	517	
5	0	0	0	0	528	
6	0	0	0	1	528	
7	0	0	0	1	524	
8	0	0	0	1	526	
9	0	0	0	1	524	
10	0	0	0	0	515	
11	0	0	0	0	519	
12	0	0	0	0	507	
13	0	0	0	0	498	
14	0	0	0	0	497	
15	0	0	0	0	504	
0	0	0	0	0	494	
1	0	0	0	0	504	
2	0	0	0	0	496	
3	0	0	0	0	508	
4	0	0	0	0	486	
5	0	0	0	0	507	
6	0	0	0	0	514	
7	0	0	0	0	529	
8	0	0	0	0	500	
9	0	0	0	0	510	
10	0	0	0	0	516	
11	0	0	0	0	513	
12	0	0	0	0	487	
13	0	0	0	0	517	
14	0	0	0	0	500	
15	0	0	0	0	512	
0	0	0	0	0	529	
1	0	0	0	0	523	
2	0	0	0	0	511	
3	0	0	0	0	515	
4	0	0	0	0	505	
5	0	0	0	0	514	
6	0	0	0	0	504	
7	0	0	0	0	507	
8	0	0	0	0	492	
9	0	0	0	0	499	
10	0	0	0	0	484	
11	0	0	0	0	494	
12	0	0	0	0	485	
13	0	0	0	0	497	
14	0	0	0	0	486	
15	0	0	0	0	499	
0	0	0	0	0	487	
1	0	0	0	0	498	
2	0	0	0	0	487	
3	0	0	0	0	498	
4	0	0	0	0	487	
5	0	0	0	0	499	
6	0	0	0	0	488	
7	0	0	0	0	500	
8	0	0	0	0	487	
9	0	0	0	0	499	
10	0	0	0	0	488	
11	0	0	0	0	500	
12	0	0	0	0	490	
13	0	0	0	0	504	
14	0	0	0	0	490	
15	0	0	0	0	502	
0	0	0	0	0	487	
1	0	0	0	0	494	
2	0	0	0	0	496	
3	0	0	0	0	507	
4	0	0	0	0	495	
5	0	0	0	0	507	
6	0	0	0	0	494	
7	0	0	0	0	504	
8	0	0	0	0	499	
9	0	0	0	0	519	
10	0	0	0	0	515	
11	0	0	0	0	536	
12	0	0	0	0	528	
13	0	0	0	0	545	
14	0	0	0	0	540	
15	0	0	0	0	553	
0	0	0	0	0	545	
1	0	0	0	0	556	
2	0	0	0	0	545	
3	0	0	0	0	555	
4	0	0	0	0	547	
5	0	0	0	0	561	
6	0	0	0	0	549	
7	0	0	0	0	561	
8	0	0	0	0	554	
9	0	0	0	0	568	
10	0	0	0	0	559	
11	0	0	0	0	571	
12	0	0	0	0	546	
13	0	0	0	0	556	
14	0	0	0	0	492	
15	0	0	0	0	472	
0	0	0	0	0	467	
1	0	0	0	0	474	
2	0	0	0	0	452	
3	0	0	0	0	457	
4	0	0	0	0	422	
5	0	0	0	0	428	
6	0	0	0	1	405	
7	0	0	0	1	397	
8	0	0	0	1	410	
9	0	0	0	0	416	
10	0	0	0	0	401	
11	0	0	0	0	412	
12	0	0	0	0	395	
13	0	0	0	0	393	
14	0	0	0	0	388	
15	0	0	0	0	418	
0	0	0	0	0	434	
1	0	0	0	0	466	
2	0	0	0	0	487	
3	0	0	0	0	512	
4	0	0	0	0	505	
5	0	0	0	0	519	
6	0	0	0	0	527	
7	0	0	0	0	547	
8	0	0	0	0	543	
9	0	0	0	0	565	
10	0	0	0	0	562	
11	0	0	0	0	574	
12	0	0	0	0	569	
13	0	0	0	0	583	
14	0	0	0	0	568	
15	0	0	0	0	572	
0	0	0	0	0	547	
1	0	0	0	0	552	
2	0	0	0	0	506	
3	0	0	0	0	492	
4	0	0	0	0	458	
5	0	0	0	0	446	
6	0	0	0	0	417	
7	0	0	0	0	426	
8	0	0	0	0	412	
9	0	0	0	0	408	
10	0	0	0	0	389	
11	0	0	0	0	393	
12	0	0	0	0	370	
13	0	0	0	0	386	
14	0	0	0	0	388	
15	0	0	0	0	429	
0	0	0	0	0	444	
1	0	0	0	0	479	
2	0	0	0	0	487	
3	0	0	0	0	507	
4	0	0	0	0	499	
5	0	0	0	0	512	
6	0	0	0	0	501	
7	0	0	0	0	523	
8	0	0	0	0	475	
9	0	0	0	0	496	
10	0	0	0	0	484	
11	0	0	0	0	499	
12	0	0	0	0	481	
13	0	0	0	0	505	
14	0	0	0	0	494	
15	0	0	0	0	499	
0	0	0	0	0	485	
1	0	0	0	0	506	
2	0	0	0	0	491	
3	0	0	0	0	501	
4	0	0	0	0	488	
5	0	0	0	0	498	
6	0	0	0	0	486	
7	0	0	0	0	492	
8	0	0	0	0	492	
9	0	0	0	0	515	
10	0	0	0	0	487	
11	0	0	0	0	501	
12	0	0	0	0	490	
13	0	0	0	0	502	
14	0	0	0	0	495	
15	0	0	0	0	506	
0	0	0	0	0	496	
1	0	0	0	0	505	
2	0	0	0	0	492	
3	0	0	0	0	504	
4	0	0	0	0	498	
5	0	0	0	0	505	
6	0	0	0	0	495	
7	0	0	0	0	504	
8	0	0	0	0	497	
9	0	0	0	0	507	
10	0	0	0	0	496	
11	0	0	0	0	508	
12	0	0	0	0	495	
13	0	0	0	0	507	
14	0	0	0	0	495	
15	0	0	0	0	508	
0	0	0	0	0	496	
1	0	0	0	0	508	
2	0	0	0	0	491	
3	0	0	0	0	510	
4	0	0	0	0	497	
5	0	0	0	0	503	
6	0	0	0	0	494	
7	0	0	0	0	505	
8	0	0	0	0	492	
9	0	0	0	0	504	
10	0	0	0	0	492	
11	0	0	0	0	504	
12	0	0	0	0	492	
13	0	0	0	0	504	
14	0	0	0	0	491	
15	0	0	0	0	500	
0	0	0	0	0	491	
1	0	0	0	0	501	
2	0	0	0	0	490	
3	0	0	0	0	502	
4	0	0	0	0	490	
5	0	0	0	0	501	
6	0	0	0	0	496	
7	0	0	0	0	508	
8	0	0	0	0	490	
9	0	0	0	0	493	
10	0	0	0	0	470	
11	0	0	0	0	486	
12	0	0	0	0	473	
13	0	0	0	0	493	
14	0	0	0	0	483	
15	0	0	0	0	495	
0	0	0	0	0	480	
1	0	0	0	0	494	
2	0	0	0	0	480	
3	0	0	0	0	495	
4	0	0	0	0	483	
5	0	0	0	0	494	
6	0	0	0	0	483	
7	0	0	0	0	496	
8	0	0	0	0	485	
9	0	0	0	0	499	
10	0	0	0	0	466	
11	0	0	0	0	475	
12	0	0	0	0	480	
13	0	0	0	0	491	
14	0	0	0	0	467	
15	0	0	0	0	479	
0	0	0	0	0	483	
1	0	0	0	0	492	
2	0	0	0	0	480	
3	0	0	0	0	491	
4	0	0	0	0	472	
5	0	0	0	0	500	
6	0	0	0	0	489	
7	0	0	0	0	498	
8	0	0	0	0	475	
9	0	0	0	0	504	
10	0	0	0	0	497	
11	0	0	0	0	508	
12	0	0	0	0	493	
13	0	0	0	0	501	
14	0	0	0	0	491	
15	0	0	0	0	504	
0	0	0	0	0	489	
1	0	0	0	0	496	
2	0	0	0	0	497	
3	0	0	0	0	507	
4	0	0	0	0	497	
5	0	0	0	0	508	
6	0	0	0	0	499	
7	0	0	0	0	505	
8	0	0	0	0	492	
9	0	0	0	0	500	
10	0	0	0	0	487	
11	0	0	0	0	496	
12	0	0	0	0	481	
13	0	0	0	0	496	
14	0	0	0	0	473	
15	0	0	0	0	486	
0	0	0	0	0	474	
1	0	0	0	0	483	
2	0	0	0	0	484	
3	0	0	0	0	499	
4	0	0	0	0	492	
5	0	0	0	0	501	
6	0	0	0	0	487	
7	0	0	0	0	493	
8	0	0	0	0	484	
9	0	0	0	0	497	
10	0	0	0	0	480	
11	0	0	0	0	508	
12	0	0	0	0	487	
13	0	0	0	0	507	
14	0	0	0	0	479	
15	0	0	0	0	477	
0	0	0	0	0	473	
1	0	0	0	0	488	
2	0	0	0	0	479	
3	0	0	0	0	494	
4	0	0	0	0	487	
5	0	0	0	0	497	
6	0	0	0	0	473	
7	0	0	0	0	492	
8	0	0	0	0	484	
9	0	0	0	0	496	
10	0	0	0	0	486	
11	0	0	0	0	495	
12	0	0	0	0	482	
13	0	0	0	0	489	
14	0	0	0	0	483	
15	0	0	0	0	500	
0	0	0	0	0	487	
1	0	0	0	0	503	
2	0	0	0	0	487	
3	0	0	0	0	503	
4	0	0	0	0	489	
5	0	0	0	0	500	
6	0	0	0	0	484	
7	0	0	0	0	496	
8	0	0	0	0	485	
9	0	0	0	0	497	
10	0	0	0	0	485	
11	0	0	0	0	495	
12	0	0	0	0	486	
13	0	0	0	0	498	
14	0	0	0	0	486	
15	0	0	0	0	499	
0	0	0	0	0	489	
1	0	0	0	0	500	
2	0	0	0	0	491	
3	0	0	0	0	502	
4	0	0	0	0	489	
5	0	0	0	0	500	
6	0	0	0	0	490	
7	0	0	0	0	498	
8	0	0	0	0	487	
9	0	0	0	0	499	
10	0	0	0	0	489	
11	0	0	0	0	500	
12	0	0	0	0	489	
13	0	0	0	0	501	
14	0	0	0	0	488	
15	0	0	0	0	500	
0	0	0	0	0	489	
1	0	0	0	0	501	
2	0	0	0	0	487	
3	0	0	0	0	500	
4	0	0	0	0	492	
5	0	0	0	0	495	
6	0	0	0	0	484	
7	0	0	0	0	495	
8	0	0	0	0	487	
9	0	0	0	0	496	
10	0	0	0	0	481	
11	0	0	0	0	503	
12	0	0	0	0	488	
13	0	0	0	0	503	
14	0	0	0	0	486	
15	0	0	0	0	496	
0	0	0	0	0	491	
1	0	0	0	0	503	
2	0	0	0	0	492	
3	0	0	0	0	500	
4	0	0	0	0	491	
5	0	0	0	0	500	
6	0	0	0	0	489	
7	0	0	0	0	500	
8	0	0	0	0	489	
9	0	0	0	0	497	
10	0	0	0	0	489	
11	0	0	0	0	504	
12	0	0	0	0	492	
13	0	0	0	0	502	
14	0	0	0	0	489	
15	0	0	0	0	504	
0	0	0	0	0	489	
1	0	0	0	0	502	
2	0	0	0	0	492	
3	0	0	0	0	502	
4	0	0	0	0	491	
5	0	0	0	0	503	
6	0	0	0	0	490	
7	0	0	0	0	504	
8	0	0	0	0	493	
9	0	0	0	0	504	
10	0	0	0	0	493	
11	0	0	0	0	504	
12	0	0	0	0	493	
13	0	0	0	0	503	
14	0	0	0	0	493	
15	0	0	0	0	505	
0	0	0	0	0	491	
1	0	0	0	0	502	
2	0	0	0	0	486	
3	0	0	0	0	496	
4	0	0	0	0	484	
5	0	0	0	0	497	
6	0	0	0	0	491	
7	0	0	0	0	496	
8	0	0	0	0	484	
9	0	0	0	0	497	
10	0	0	0	0	485	
11	0	0	0	0	495	
12	0	0	0	0	483	
13	0	0	0	0	495	
14	0	0	0	0	483	
15	0	0	0	0	497	
0	0	0	0	0	484	
1	0	0	0	0	496	
2	0	0	0	0	487	
3	0	0	0	0	499	
4	0	0	0	0	494	
5	0	0	0	0	500	
6	0	0	0	0	487	
7	0	0	0	0	499	
8	0	0	0	0	488	
9	0	0	0	0	506	
10	0	0	0	0	492	
11	0	0	0	0	504	
12	0	0	0	0	492	
13	0	0	0	0	508	
14	0	0	0	0	494	
15	0	0	0	0	508	
0	0	0	0	0	498	
1	0	0	0	0	504	
2	0	0	0	0	491	
3	0	0	0	0	501	
4	0	0	0	0	496	
5	0	0	0	0	497	
6	0	0	0	0	480	
7	0	0	0	0	491	
8	0	0	0	0	483	
9	0	0	0	0	489	
10	0	0	0	0	489	
11	0	0	0	0	510	
12	0	0	0	0	494	
13	0	0	0	0	505	
14	0	0	0	0	494	
15	0	0	0	0	504	
0	0	0	0	0	498	
1	0	0	0	0	505	
2	0	0	0	0	497	
3	0	0	0	0	507	
4	0	0	0	0	497	
5	0	0	0	0	507	
6	0	0	0	0	497	
7	0	0	0	0	508	
8	0	0	0	0	496	
9	0	0	0	0	507	
10	0	0	0	0	496	
11	0	0	0	0	507	
12	0	0	0	0	496	
13	0	0	0	0	505	
14	0	0	0	0	495	
15	0	0	0	0	507	
0	0	0	0	0	494	
1	0	0	0	0	507	
2	0	0	0	0	496	
3	0	0	0	0	508	
4	0	0	0	0	496	
5	0	0	0	0	507	
6	0	0	0	0	495	
7	0	0	0	0	504	
8	0	0	0	0	494	
9	0	0	0	0	509	
10	0	0	0	0	497	
11	0	0	0	0	509	
12	0	0	0	0	499	
13	0	0	0	0	509	
14	0	0	0	0	496	
15	0	0	0	0	511	
0	0	0	0	0	499	
1	0	0	0	0	516	
2	0	0	0	0	504	
3	0	0	0	0	513	
4	0	0	0	0	502	
5	0	0	0	0	512	
6	0	0	0	0	499	
7	0	0	0	0	513	
8	0	0	0	0	500	
9	0	0	0	0	511	
10	0	0	0	0	494	
11	0	0	0	0	507	
12	0	0	0	0	494	
13	0	0	0	0	507	
14	0	0	0	0	480	
15	0	0	0	0	495	
0	0	0	0	0	484	
1	0	0	0	0	497	
2	0	0	0	0	492	
3	0	0	0	0	514	
4	0	0	0	0	496	
5	0	0	0	0	512	
6	0	0	0	0	503	
7	0	0	0	0	519	
8	0	0	0	0	506	
9	0	0	0	0	520	
10	0	0	0	0	509	
11	0	0	0	0	518	
12	0	0	0	0	520	
13	0	0	0	0	523	
14	0	0	0	0	507	
15	0	0	0	0	523	
0	0	0	0	0	508	
1	0	0	0	0	525	
2	0	0	0	0	512	
3	0	0	0	0	518	
4	0	0	0	0	508	
5	0	0	0	0	522	
6	0	0	0	0	511	
7	0	0	0	0	523	
8	0	0	0	0	510	
9	0	0	0	0	520	
10	0	0	0	0	510	
11	0	0	0	0	519	
12	0	0	0	0	509	
13	0	0	0	0	521	
14	0	0	0	0	509	
15	0	0	0	0	520	
0	0	0	0	0	508	
1	0	0	0	0	521	
2	0	0	0	0	509	
3	0	0	0	0	519	
4	0	0	0	0	508	
5	0	0	0	0	520	
6	0	0	0	0	508	
7	0	0	0	0	519	
8	0	0	0	0	508	
9	0	0	0	0	520	
10	0	0	0	0	510	
11	0	0	0	0	520	
12	0	0	0	0	509	
13	0	0	0	0	519	
14	0	0	0	0	508	
15	0	0	0	0	519	
0	0	0	0	0	507	
1	0	0	0	0	519	
2	0	0	0	0	508	
3	0	0	0	0	519	
4	0	0	0	0	508	
5	0	0	0	0	520	
6	0	0	0	0	509	
7	0	0	0	0	520	
8	0	0	0	0	508	
9	0	0	0	0	519	
10	0	0	0	0	508	
11	0	0	0	0	520	
12	0	0	0	0	508	
13	0	0	0	0	519	
14	0	0	0	0	508	
15	0	0	0	0	521	
0	0	0	0	0	508	
1	0	0	0	0	520	
2	0	0	0	0	508	
3	0	0	0	0	519	
4	0	0	0	0	505	
5	0	0	0	0	517	
6	0	0	0	0	506	
7	0	0	0	0	516	
8	0	0	0	0	505	
9	0	0	0	0	519	
10	0	0	0	0	507	
11	0	0	0	0	511	
12	0	0	0	0	491	
13	0	0	0	0	486	
14	0	0	0	0	460	
15	0	0	0	0	455	
0	0	0	0	0	481	
1	0	0	0	0	434	
2	0	0	0	0	426	
3	0	0	0	0	429	
4	0	0	0	0	419	
5	0	0	0	0	429	
6	0	0	0	0	412	
7	0	0	0	0	419	
8	0	0	0	0	417	
9	0	0	0	0	436	
10	0	0	0	0	447	
11	0	0	0	0	477	
12	0	0	0	0	483	
13	0	0	0	0	504	
14	0	0	0	0	497	
15	0	0	0	0	508	
0	0	0	0	0	499	
1	0	0	0	0	510	
2	0	0	0	0	501	
3	0	0	0	0	518	
4	0	0	0	0	510	
5	0	0	0	0	525	
6	0	0	0	0	511	
7	0	0	0	0	516	
8	0	0	0	0	505	
9	0	0	0	0	515	
10	0	0	0	0	504	
11	0	0	0	0	516	
12	0	0	0	0	505	
13	0	0	0	0	519	
14	0	0	0	0	505	
15	0	0	0	0	513	
0	0	0	0	0	502	
1	0	0	0	0	510	
2	0	0	0	0	500	
3	0	0	0	0	508	
4	0	0	0	0	497	
5	0	0	0	0	507	
6	0	0	0	0	496	
7	0	0	0	0	508	
8	0	0	0	0	499	
9	0	0	0	0	515	
10	0	0	0	0	502	
11	0	0	0	0	512	
12	0	0	0	0	501	
13	0	0	0	0	512	
14	0	0	0	0	499	
15	0	0	0	0	512	
0	0	0	0	0	500	
1	0	0	0	0	513	
2	0	0	0	0	502	
3	0	0	0	0	513	
4	0	0	0	0	503	
5	0	0	0	0	513	
6	0	0	0	0	502	
7	0	0	0	0	514	
8	0	0	0	0	504	
9	0	0	0	0	514	
10	0	0	0	0	501	
11	0	0	0	0	513	
12	0	0	0	0	502	
13	0	0	0	0	510	
14	0	0	0	0	501	
15	0	0	0	0	512	
0	0	0	0	0	500	
1	0	0	0	0	511	
2	0	0	0	0	498	
3	0	0	0	0	514	
4	0	0	0	0	500	
5	0	0	0	0	511	
6	0	0	0	0	502	
7	0	0	0	0	514	
8	0	0	0	0	503	
9	0	0	0	0	513	
10	0	0	0	0	504	
11	0	0	0	0	520	
12	0	0	0	0	502	
13	0	0	0	0	515	
14	0	0	0	0	503	
15	0	0	0	0	514	
0	0	0	0	0	503	
1	0	0	0	0	512	
2	0	0	0	0	503	
3	0	0	0	0	513	
4	0	0	0	0	504	
5	0	0	0	0	515	
6	0	0	0	0	504	
7	0	0	0	0	517	
8	0	0	0	0	505	
9	0	0	0	0	517	
10	0	0	0	0	503	
11	0	0	0	0	517	
12	0	0	0	0	504	
13	0	0	0	0	515	
14	0	0	0	0	504	
15	0	0	0	0	515	
0	0	0	0	0	504	
1	0	0	0	0	515	
2	0	0	0	0	504	
3	0	0	0	0	514	
4	0	0	0	0	503	
5	0	0	0	0	519	
6	0	0	0	0	507	
7	0	0	0	0	504	
8	0	0	0	0	488	
9	0	0	0	0	499	
10	0	0	0	0	473	
11	0	0	0	0	490	
12	0	0	0	0	479	
13	0	0	0	0	474	
14	0	0	0	0	460	
15	0	0	0	0	469	
0	0	0	0	0	465	
1	0	0	0	0	480	
2	0	0	0	0	464	
3	0	0	0	0	484	
4	0	0	0	0	475	
5	0	0	0	0	487	
6	0	0	0	0	473	
7	0	0	0	0	491	
8	0	0	0	0	481	
9	0	0	0	0	487	
10	0	0	0	0	483	
11	0	0	0	0	497	
12	0	0	0	0	474	
13	0	0	0	0	481	
14	0	0	0	0	473	
15	0	0	0	0	487	
0	0	0	0	0	476	
1	0	0	0	0	487	
2	0	0	0	0	469	
3	0	0	0	0	491	
4	0	0	0	0	479	
5	0	0	0	0	483	
6	0	0	0	0	454	
7	0	0	0	0	473	
8	0	0	0	0	464	
9	0	0	0	0	484	
10	0	0	0	0	475	
11	0	0	0	0	482	
12	0	0	0	0	455	
13	0	0	0	0	449	
14	0	0	0	0	438	
15	0	0	0	0	452	
0	0	0	0	0	430	
1	0	0	0	0	438	
2	0	0	0	0	419	
3	0	0	0	0	413	
4	0	0	0	0	415	
5	0	0	0	1	422	
6	0	0	0	1	424	
7	0	0	0	1	423	
8	0	0	0	1	433	
9	0	0	0	0	431	
10	0	0	0	0	417	
11	0	0	0	0	421	
12	0	0	0	0	406	
13	0	0	0	0	438	
14	0	0	0	0	428	
15	0	0	0	0	443	
0	0	0	0	0	451	
1	0	0	0	0	475	
2	0	0	0	0	467	
3	0	0	0	0	480	
4	0	0	0	0	469	
5	0	0	0	0	477	
6	0	0	0	0	468	
7	0	0	0	0	471	
8	0	0	0	0	448	
9	0	0	0	0	471	
10	0	0	0	0	459	
11	0	0	0	0	480	
12	0	0	0	1	470	
13	0	0	0	1	467	
14	0	0	0	1	473	
15	0	0	0	1	473	
0	0	0	0	0	463	
1	0	0	0	0	476	
2	0	0	0	0	467	
3	0	0	0	0	479	
4	0	0	0	0	470	
5	0	0	0	0	476	
6	0	0	0	0	467	
7	0	0	0	0	481	
8	0	0	0	0	480	
9	0	0	0	0	501	
10	0	0	0	0	495	
11	0	0	0	0	513	
12	0	0	0	0	504	
13	0	0	0	0	510	
14	0	0	0	0	482	
15	0	0	0	0	508	
0	0	0	0	0	481	
1	0	0	0	0	504	
2	0	0	0	0	492	
3	0	0	0	0	503	
4	0	0	0	0	493	
5	0	0	0	0	509	
6	0	0	0	0	498	
7	0	0	0	0	499	
8	0	0	0	0	478	
9	0	0	0	0	492	
10	0	0	0	0	491	
11	0	0	0	0	507	
12	0	0	0	0	493	
13	0	0	0	0	503	
14	0	0	0	0	485	
15	0	0	0	0	492	
0	0	0	0	0	487	
1	0	0	0	0	503	
2	0	0	0	0	489	
3	0	0	0	0	502	
4	0	0	0	0	488	
5	0	0	0	0	503	
6	0	0	0	0	491	
7	0	0	0	0	505	
8	0	0	0	0	499	
9	0	0	0	0	501	
10	0	0	0	0	484	
11	0	0	0	0	496	
12	0	0	0	0	483	
13	0	0	0	0	508	
14	0	0	0	0	498	
15	0	0	0	0	509	
0	0	0	0	0	499	
1	0	0	0	0	510	
2	0	0	0	0	496	
3	0	0	0	0	507	
4	0	0	0	0	494	
5	0	0	0	0	507	
6	0	0	0	0	494	
7	0	0	0	0	507	
8	0	0	0	0	494	
9	0	0	0	0	507	
10	0	0	0	0	497	
11	0	0	0	0	506	
12	0	0	0	0	494	
13	0	0	0	0	507	
14	0	0	0	0	493	
15	0	0	0	0	504	
0	0	0	0	0	493	
1	0	0	0	0	504	
2	0	0	0	0	493	
3	0	0	0	0	503	
4	0	0	0	0	495	
5	0	0	0	0	504	
6	0	0	0	0	494	
7	0	0	0	0	505	
8	0	0	0	0	497	
9	0	0	0	0	507	
10	0	0	0	0	493	
11	0	0	0	0	506	
12	0	0	0	0	493	
13	0	0	0	0	507	
14	0	0	0	0	496	
15	0	0	0	0	507	
0	0	0	0	0	496	
1	0	0	0	0	507	
2	0	0	0	0	495	
3	0	0	0	0	506	
4	0	0	0	0	495	
5	0	0	0	0	506	
6	0	0	0	0	494	
7	0	0	0	0	503	
8	0	0	0	0	494	
9	0	0	0	0	503	
10	0	0	0	0	491	
11	0	0	0	0	502	
12	0	0	0	0	493	
13	0	0	0	0	504	
14	0	0	0	0	494	
15	0	0	0	0	506	
0	0	0	0	0	492	
1	0	0	0	0	505	
2	0	0	0	0	493	
3	0	0	0	0	506	
4	0	0	0	0	494	
5	0	0	0	0	504	
6	0	0	0	0	492	
7	0	0	0	0	502	
8	0	0	0	0	492	
9	0	0	0	0	504	
10	0	0	0	0	493	
11	0	0	0	0	505	
12	0	0	0	0	494	
13	0	0	0	0	502	
14	0	0	0	0	493	
15	0	0	0	0	503	
0	0	0	0	0	494	
1	0	0	0	0	506	
2	0	0	0	0	492	
3	0	0	0	0	506	
4	0	0	0	0	496	
5	0	0	0	0	507	
6	0	0	0	0	494	
7	0	0	0	0	507	
8	0	0	0	0	496	
9	0	0	0	0	508	
10	0	0	0	0	495	
11	0	0	0	0	507	
12	0	0	0	0	494	
13	0	0	0	0	507	
14	0	0	0	0	495	
15	0	0	0	0	507	
0	0	0	0	0	496	
1	0	0	0	0	505	
2	0	0	0	0	496	
3	0	0	0	0	509	
4	0	0	0	0	496	
5	0	0	0	0	507	
6	0	0	0	0	495	
7	0	0	0	0	507	
8	0	0	0	0	496	
9	0	0	0	0	506	
10	0	0	0	0	495	
11	0	0	0	0	505	
12	0	0	0	0	496	
13	0	0	0	0	506	
14	0	0	0	0	494	
15	0	0	0	0	508	
0	0	0	0	0	496	
1	0	0	0	0	504	
2	0	0	0	0	495	
3	0	0	0	0	506	
4	0	0	0	0	495	
5	0	0	0	0	505	
6	0	0	0	0	497	
7	0	0	0	0	505	
8	0	0	0	0	494	
9	0	0	0	0	506	
10	0	0	0	0	495	
11	0	0	0	0	503	
12	0	0	0	0	496	
13	0	0	0	0	507	
14	0	0	0	0	496	
15	0	0	0	0	509	
0	0	0	0	0	496	
1	0	0	0	0	507	
2	0	0	0	0	497	
3	0	0	0	0	506	
4	0	0	0	0	496	
5	0	0	0	0	508	
6	0	0	0	0	496	
7	0	0	0	0	508	
8	0	0	0	0	497	
9	0	0	0	0	508	
10	0	0	0	0	497	
11	0	0	0	0	509	
12	0	0	0	0	496	
13	0	0	0	0	507	
14	0	0	0	0	495	
15	0	0	0	0	508	
0	0	0	0	0	496	
1	0	0	0	0	509	
2	0	0	0	0	497	
3	0	0	0	0	508	
4	0	0	0	0	496	
5	0	0	0	0	506	
6	0	0	0	0	496	
7	0	0	0	0	507	
8	0	0	0	0	495	
9	0	0	0	0	508	
10	0	0	0	0	496	
11	0	0	0	0	507	
12	0	0	0	0	495	
13	0	0	0	0	507	
14	0	0	0	0	494	
15	0	0	0	0	515	
0	0	0	0	0	478	
1	0	0	0	0	492	
2	0	0	0	0	481	
3	0	0	0	0	500	
4	0	0	0	0	481	
5	0	0	0	0	499	
6	0	0	0	0	489	
7	0	0	0	0	504	
8	0	0	0	0	484	
9	0	0	0	0	497	
10	0	0	0	0	483	
11	0	0	0	0	489	
12	0	0	0	0	474	
13	0	0	0	0	470	
14	0	0	0	0	460	
15	0	0	0	0	471	
0	0	0	0	0	451	
1	0	0	0	0	457	
2	0	0	0	0	432	
3	0	0	0	0	430	
4	0	0	0	0	423	
5	0	0	0	0	429	
6	0	0	0	0	425	
7	0	0	0	0	436	
8	0	0	0	0	428	
9	0	0	0	0	442	
10	0	0	0	0	424	
11	0	0	0	0	437	
12	0	0	0	0	425	
13	0	0	0	0	436	
14	0	0	0	0	422	
15	0	0	0	0	435	
0	0	0	0	0	422	
1	0	0	0	0	432	
2	0	0	0	0	425	
3	0	0	0	0	436	
4	0	0	0	0	426	
5	0	0	0	0	435	
6	0	0	0	1	435	
7	0	0	0	1	435	
8	0	0	0	1	432	
9	0	0	0	0	434	
10	0	0	0	0	423	
11	0	0	0	0	433	
12	0	0	0	0	422	
13	0	0	0	0	433	
14	0	0	0	0	420	
15	0	0	0	0	433	
0	0	0	0	0	422	
1	0	0	0	0	433	
2	0	0	0	0	420	
3	0	0	0	0	433	
4	0	0	0	0	422	
5	0	0	0	0	433	
6	0	0	0	0	420	
7	0	0	0	0	434	
8	0	0	0	0	422	
9	0	0	0	0	433	
10	0	0	0	0	421	
11	0	0	0	1	430	
12	0	0	0	1	430	
13	0	0	0	1	430	
14	0	0	0	1	433	
15	0	0	0	0	433	
0	0	0	0	0	422	
1	0	0	0	0	433	
2	0	0	0	0	421	
3	0	0	0	0	432	
4	0	0	0	0	420	
5	0	0	0	0	432	
6	0	0	0	0	423	
7	0	0	0	0	434	
8	0	0	0	0	420	
9	0	0	0	0	432	
10	0	0	0	0	419	
11	0	0	0	0	431	
12	0	0	0	0	420	
13	0	0	0	0	432	
14	0	0	0	0	419	
15	0	0	0	1	428	
0	0	0	0	1	434	
1	0	0	0	1	425	
2	0	0	0	1	432	
3	0	0	0	0	432	
4	0	0	0	0	420	
5	0	0	0	0	432	
6	0	0	0	0	420	
7	0	0	0	0	429	
8	0	0	0	0	419	
9	0	0	0	0	431	
10	0	0	0	0	419	
11	0	0	0	0	433	
12	0	0	0	0	420	
13	0	0	0	0	432	
14	0	0	0	0	419	
15	0	0	0	0	432	
0	0	0	0	0	419	
1	0	0	0	0	432	
2	0	0	0	0	420	
3	0	0	0	0	432	
4	0	0	0	1	433	
5	0	0	0	1	426	
6	0	0	0	1	431	
7	0	0	0	1	428	
8	0	0	0	0	419	
9	0	0	0	0	431	
10	0	0	0	0	420	
11	0	0	0	0	431	
12	0	0	0	0	419	
13	0	0	0	0	432	
14	0	0	0	0	419	
15	0	0	0	0	431	
0	0	0	0	0	419	
1	0	0	0	0	431	
2	0	0	0	0	419	
3	0	0	0	0	423	
4	0	0	0	0	409	
5	0	0	0	0	427	
6	0	0	0	0	432	
7	0	0	0	0	446	
8	0	0	0	0	457	
9	0	0	0	1	467	
10	0	0	0	1	470	
11	0	0	0	1	464	
12	0	0	0	0	465	
13	0	0	0	0	495	
14	0	0	0	0	481	
15	0	0	0	0	496	
0	0	0	0	0	487	
1	0	0	0	0	501	
2	0	0	0	0	495	
3	0	0	0	0	503	
4	0	0	0	0	492	
5	0	0	0	0	501	
6	0	0	0	0	490	
7	0	0	0	0	495	
8	0	0	0	0	477	
9	0	0	0	0	496	
10	0	0	0	0	489	
11	0	0	0	0	502	
12	0	0	0	0	491	
13	0	0	0	0	500	
14	0	0	0	0	489	
15	0	0	0	0	502	
0	0	0	0	0	487	
1	0	0	0	0	500	
2	0	0	0	0	490	
3	0	0	0	0	502	
4	0	0	0	0	488	
5	0	0	0	0	499	
6	0	0	0	0	490	
7	0	0	0	0	501	
8	0	0	0	0	485	
9	0	0	0	0	495	
10	0	0	0	0	483	
11	0	0	0	0	493	
12	0	0	0	0	481	
13	0	0	0	0	494	
14	0	0	0	0	482	
15	0	0	0	0	495	
0	0	0	0	0	487	
1	0	0	0	0	496	
2	0	0	0	0	486	
3	0	0	0	0	498	
4	0	0	0	0	484	
5	0	0	0	0	497	
6	0	0	0	0	488	
7	0	0	0	0	498	
8	0	0	0	0	487	
9	0	0	0	0	498	
10	0	0	0	0	487	
11	0	0	0	0	498	
12	0	0	0	0	486	
13	0	0	0	0	498	
14	0	0	0	0	487	
15	0	0	0	0	497	
0	0	0	0	0	487	
1	0	0	0	0	498	
2	0	0	0	0	484	
3	0	0	0	0	498	
4	0	0	0	0	486	
5	0	0	0	0	498	
6	0	0	0	0	487	
7	0	0	0	0	499	
8	0	0	0	0	486	
9	0	0	0	0	500	
10	0	0	0	0	487	
11	0	0	0	0	500	
12	0	0	0	0	489	
13	0	0	0	0	503	
14	0	0	0	0	491	
15	0	0	0	0	503	
0	0	0	0	0	491	
1	0	0	0	0	501	
2	0	0	0	0	491	
3	0	0	0	0	500	
4	0	0	0	0	480	
5	0	0	0	0	496	
6	0	0	0	0	488	
7	0	0	0	0	499	
8	0	0	0	0	484	
9	0	0	0	0	496	
10	0	0	0	0	487	
11	0	0	0	0	485	
12	0	0	0	0	467	
13	0	0	0	0	489	
14	0	0	0	0	480	
15	0	0	0	0	483	
0	0	0	0	0	483	
1	0	0	0	0	503	
2	0	0	0	0	490	
3	0	0	0	0	499	
4	0	0	0	0	494	
5	0	0	0	0	524	
6	0	0	0	0	492	
7	0	0	0	0	504	
8	0	0	0	0	495	
9	0	0	0	0	508	
10	0	0	0	0	493	
11	0	0	0	0	506	
12	0	0	0	0	494	
13	0	0	0	0	514	
14	0	0	0	0	494	
15	0	0	0	0	506	
0	0	0	0	0	495	
1	0	0	0	0	507	
2	0	0	0	0	496	
3	0	0	0	0	508	
4	0	0	0	0	496	
5	0	0	0	0	506	
6	0	0	0	0	499	
7	0	0	0	0	515	
8	0	0	0	0	508	
9	0	0	0	0	513	
10	0	0	0	0	503	
11	0	0	0	0	510	
12	0	0	0	0	499	
13	0	0	0	0	514	
14	0	0	0	0	501	
15	0	0	0	0	511	
0	0	0	0	0	499	
1	0	0	0	0	512	
2	0	0	0	0	499	
3	0	0	0	0	511	
4	0	0	0	0	500	
5	0	0	0	0	511	
6	0	0	0	0	499	
7	0	0	0	0	511	
8	0	0	0	0	499	
9	0	0	0	0	511	
10	0	0	0	0	499	
11	0	0	0	0	510	
12	0	0	0	0	499	
13	0	0	0	0	511	
14	0	0	0	0	501	
15	0	0	0	0	509	
0	0	0	0	0	500	
1	0	0	0	0	514	
2	0	0	0	0	500	
3	0	0	0	0	510	
4	0	0	0	0	499	
5	0	0	0	0	509	
6	0	0	0	0	497	
7	0	0	0	0	508	
8	0	0	0	0	498	
9	0	0	0	0	511	
10	0	0	0	0	498	
11	0	0	0	0	512	
12	0	0	0	0	496	
13	0	0	0	0	508	
14	0	0	0	0	493	
15	0	0	0	0	505	
0	0	0	0	0	491	
1	0	0	0	0	504	
2	0	0	0	0	499	
3	0	0	0	0	507	
4	0	0	0	0	496	
5	0	0	0	0	516	
6	0	0	0	0	504	
7	0	0	0	0	511	
8	0	0	0	0	504	
9	0	0	0	0	513	
10	0	0	0	0	501	
11	0	0	0	0	515	
12	0	0	0	0	502	
13	0	0	0	0	512	
14	0	0	0	0	499	
15	0	0	0	0	509	
0	0	0	0	0	496	
1	0	0	0	0	507	
2	0	0	0	0	499	
3	0	0	0	0	505	
4	0	0	0	0	499	
5	0	0	0	0	510	
6	0	0	0	0	498	
7	0	0	0	0	511	
8	0	0	0	0	500	
9	0	0	0	0	517	
10	0	0	0	0	502	
11	0	0	0	0	514	
12	0	0	0	0	502	
13	0	0	0	0	510	
14	0	0	0	0	500	
15	0	0	0	0	512	
0	0	0	0	0	504	
1	0	0	0	0	515	
2	0	0	0	0	504	
3	0	0	0	0	512	
4	0	0	0	0	499	
5	0	0	0	0	515	
6	0	0	0	0	502	
7	0	0	0	0	511	
8	0	0	0	0	503	
9	0	0	0	0	514	
10	0	0	0	0	501	
11	0	0	0	0	514	
12	0	0	0	0	504	
13	0	0	0	0	515	
14	0	0	0	0	504	
15	0	0	0	0	514	
0	0	0	0	0	503	
1	0	0	0	0	513	
2	0	0	0	0	500	
3	0	0	0	0	514	
4	0	0	0	0	502	
5	0	0	0	0	513	
6	0	0	0	0	498	
7	0	0	0	0	510	
8	0	0	0	0	500	
9	0	0	0	0	512	
10	0	0	0	0	502	
11	0	0	0	0	512	
12	0	0	0	0	499	
13	0	0	0	0	511	
14	0	0	0	0	501	
15	0	0	0	0	513	
0	0	0	0	0	502	
1	0	0	0	0	512	
2	0	0	0	0	502	
3	0	0	0	0	512	
4	0	0	0	0	500	
5	0	0	0	0	512	
6	0	0	0	0	500	
7	0	0	0	0	512	
8	0	0	0	0	502	
9	0	0	0	0	513	
10	0	0	0	0	501	
11	0	0	0	0	513	
12	0	0	0	0	505	
13	0	0	0	0	515	
14	0	0	0	0	498	
15	0	0	0	0	502	
0	0	0	0	0	479	
1	0	0	0	0	491	
2	0	0	0	0	483	
3	0	0	0	0	495	
4	0	0	0	0	488	
5	0	0	0	0	490	
6	0	0	0	0	481	
7	0	0	0	0	486	
8	0	0	0	0	471	
9	0	0	0	0	483	
10	0	0	0	0	460	
11	0	0	0	0	471	
12	0	0	0	0	452	
13	0	0	0	0	438	
14	0	0	0	0	419	
15	0	0	0	0	434	
0	0	0	0	0	421	
1	0	0	0	0	432	
2	0	0	0	0	421	
3	0	0	0	0	431	
4	0	0	0	0	419	
5	0	0	0	0	431	
6	0	0	0	0	421	
7	0	0	0	0	433	
8	0	0	0	0	420	
9	0	0	0	0	434	
10	0	0	0	0	421	
11	0	0	0	0	432	
12	0	0	0	0	422	
13	0	0	0	0	433	
14	0	0	0	0	423	
15	0	0	0	0	435	
0	0	0	0	0	422	
1	0	0	0	0	435	
2	0	0	0	0	421	
3	0	0	0	1	430	
4	0	0	0	1	412	
5	0	0	0	1	424	
6	0	0	0	1	456	
7	0	0	0	0	473	
8	0	0	0	0	453	
9	0	0	0	0	440	
10	0	0	0	0	423	
11	0	0	0	0	434	
12	0	0	0	0	422	
13	0	0	0	0	432	
14	0	0	0	0	421	
15	0	0	0	0	433	
0	0	0	0	0	421	
1	0	0	0	0	432	
2	0	0	0	0	421	
3	0	0	0	0	432	
4	0	0	0	0	420	
5	0	0	0	0	433	
6	0	0	0	0	419	
7	0	0	0	0	431	
8	0	0	0	0	421	
9	0	0	0	0	433	
10	0	0	0	1	432	
11	0	0	0	1	429	
12	0	0	0	1	433	
13	0	0	0	1	425	
14	0	0	0	0	420	
15	0	0	0	0	432	
0	0	0	0	0	419	
1	0	0	0	0	432	
2	0	0	0	0	420	
3	0	0	0	0	432	
4	0	0	0	0	419	
5	0	0	0	0	431	
6	0	0	0	0	419	
7	0	0	0	0	431	
8	0	0	0	0	420	
9	0	0	0	0	432	
10	0	0	0	0	420	
11	0	0	0	0	431	
12	0	0	0	0	419	
13	0	0	0	0	432	
14	0	0	0	0	421	
15	0	0	0	1	429	
0	0	0	0	1	432	
1	0	0	0	1	423	
2	0	0	0	1	417	
3	0	0	0	0	423	
4	0	0	0	0	420	
5	0	0	0	0	446	
6	0	0	0	0	455	
7	0	0	0	0	469	
8	0	0	0	0	473	
9	0	0	0	0	486	
10	0	0	0	0	484	
11	0	0	0	0	499	
12	0	0	0	0	490	
13	0	0	0	0	509	
14	0	0	0	0	504	
15	0	0	0	0	510	
0	0	0	0	0	498	
1	0	0	0	0	515	
2	0	0	0	0	504	
3	0	0	0	0	509	
4	0	0	0	0	492	
5	0	0	0	0	503	
6	0	0	0	0	493	
7	0	0	0	0	503	
8	0	0	0	0	491	
9	0	0	0	0	501	
10	0	0	0	0	495	
11	0	0	0	0	508	
12	0	0	0	0	493	
13	0	0	0	0	504	
14	0	0	0	0	491	
15	0	0	0	0	501	
0	0	0	0	0	490	
1	0	0	0	0	507	
2	0	0	0	0	492	
3	0	0	0	0	504	
4	0	0	0	0	492	
5	0	0	0	0	504	
6	0	0	0	0	492	
7	0	0	0	0	505	
8	0	0	0	0	492	
9	0	0	0	0	504	
10	0	0	0	0	494	
11	0	0	0	0	507	
12	0	0	0	0	495	
13	0	0	0	0	508	
14	0	0	0	0	492	
15	0	0	0	0	507	
0	0	0	0	0	505	
1	0	0	0	0	527	
2	0	0	0	0	506	
3	0	0	0	0	511	
4	0	0	0	0	487	
5	0	0	0	0	499	
6	0	0	0	0	477	
7	0	0	0	0	494	
8	0	0	0	0	495	
9	0	0	0	0	502	
10	0	0	0	0	503	
11	0	0	0	0	507	
12	0	0	0	0	499	
13	0	0	0	0	528	
14	0	0	0	0	527	
15	0	0	0	0	541	
0	0	0	0	0	536	
1	0	0	0	0	553	
2	0	0	0	0	548	
3	0	0	0	0	558	
4	0	0	0	0	550	
5	0	0	0	0	563	
6	0	0	0	0	551	
7	0	0	0	0	564	
8	0	0	0	0	548	
9	0	0	0	0	545	
10	0	0	0	0	513	
11	0	0	0	0	516	
12	0	0	0	0	495	
13	0	0	0	0	498	
14	0	0	0	0	482	
15	0	0	0	0	495	
0	0	0	0	0	484	
1	0	0	0	0	492	
2	0	0	0	0	485	
3	0	0	0	0	499	
4	0	0	0	0	488	
5	0	0	0	0	491	
6	0	0	0	0	489	
7	0	0	0	0	505	
8	0	0	0	0	479	
9	0	0	0	0	490	
10	0	0	0	0	491	
11	0	0	0	0	488	
12	0	0	0	0	497	
13	0	0	0	0	496	
14	0	0	0	0	489	
15	0	0	0	0	504	
0	0	0	0	0	494	
1	0	0	0	0	505	
2	0	0	0	0	491	
3	0	0	0	0	503	
4	0	0	0	0	489	
5	0	0	0	0	501	
6	0	0	0	0	490	
7	0	0	0	0	503	
8	0	0	0	0	492	
9	0	0	0	0	500	
10	0	0	0	0	492	
11	0	0	0	0	504	
12	0	0	0	0	496	
13	0	0	0	0	509	
14	0	0	0	0	499	
15	0	0	0	0	511	
0	0	0	0	0	499	
1	0	0	0	0	510	
2	0	0	0	0	496	
3	0	0	0	0	509	
4	0	0	0	0	496	
5	0	0	0	0	507	
6	0	0	0	0	494	
7	0	0	0	0	508	
8	0	0	0	0	495	
9	0	0	0	0	506	
10	0	0	0	0	497	
11	0	0	0	0	507	
12	0	0	0	0	495	
13	0	0	0	0	506	
14	0	0	0	0	494	
15	0	0	0	0	505	
0	0	0	0	0	494	
1	0	0	0	0	507	
2	0	0	0	0	492	
3	0	0	0	0	506	
4	0	0	0	0	494	
5	0	0	0	0	508	
6	0	0	0	0	493	
7	0	0	0	0	506	
8	0	0	0	0	494	
9	0	0	0	0	505	
10	0	0	0	0	494	
11	0	0	0	0	501	
12	0	0	0	0	492	
13	0	0	0	0	505	
14	0	0	0	0	493	
15	0	0	0	0	501	
0	0	0	0	0	491	
1	0	0	0	0	502	
2	0	0	0	0	493	
3	0	0	0	0	504	
4	0	0	0	0	489	
5	0	0	0	0	496	
6	0	0	0	0	480	
7	0	0	0	0	489	
8	0	0	0	0	475	
9	0	0	0	0	481	
10	0	0	0	0	470	
11	0	0	0	0	480	
12	0	0	0	0	468	
13	0	0	0	0	478	
14	0	0	0	0	466	
15	0	0	0	0	477	
0	0	0	0	0	466	
1	0	0	0	0	476	
2	0	0	0	0	465	
3	0	0	0	0	473	
4	0	0	0	0	466	
5	0	0	0	0	484	
6	0	0	0	0	479	
7	0	0	0	0	496	
8	0	0	0	0	485	
9	0	0	0	0	501	
10	0	0	0	0	492	
11	0	0	0	0	503	
12	0	0	0	0	492	
13	0	0	0	0	504	
14	0	0	0	0	491	
15	0	0	0	0	501	
0	0	0	0	0	495	
1	0	0	0	0	503	
2	0	0	0	0	491	
3	0	0	0	0	502	
4	0	0	0	0	490	
5	0	0	0	0	502	
6	0	0	0	0	489	
7	0	0	0	0	500	
8	0	0	0	0	489	
9	0	0	0	0	500	
10	0	0	0	0	489	
11	0	0	0	0	500	
12	0	0	0	0	489	
13	0	0	0	0	500	
14	0	0	0	0	489	
15	0	0	0	0	501	
0	0	0	0	0	490	
1	0	0	0	0	501	
2	0	0	0	0	489	
3	0	0	0	0	499	
4	0	0	0	0	489	
5	0	0	0	0	501	
6	0	0	0	0	489	
7	0	0	0	0	501	
8	0	0	0	0	490	
9	0	0	0	0	502	
10	0	0	0	0	491	
11	0	0	0	0	504	
12	0	0	0	0	492	
13	0	0	0	0	504	
14	0	0	0	0	496	
15	0	0	0	0	506	
0	0	0	0	0	496	
1	0	0	0	0	505	
2	0	0	0	0	497	
3	0	0	0	0	507	
4	0	0	0	0	496	
5	0	0	0	0	507	
6	0	0	0	0	495	
7	0	0	0	0	506	
8	0	0	0	0	494	
9	0	0	0	0	506	
10	0	0	0	0	495	
11	0	0	0	0	505	
12	0	0	0	0	495	
13	0	0	0	0	505	
14	0	0	0	0	496	
15	0	0	0	0	505	
0	0	0	0	0	496	
1	0	0	0	0	505	
2	0	0	0	0	492	
3	0	0	0	0	505	
4	0	0	0	0	497	
5	0	0	0	0	507	
6	0	0	0	0	493	
7	0	0	0	0	505	
8	0	0	0	0	493	
9	0	0	0	0	506	
10	0	0	0	0	492	
11	0	0	0	0	502	
12	0	0	0	0	490	
13	0	0	0	0	499	
14	0	0	0	0	487	
15	0	0	0	0	500	
0	0	0	0	0	491	
1	0	0	0	0	500	
2	0	0	0	0	489	
3	0	0	0	0	500	
4	0	0	0	0	487	
5	0	0	0	0	501	
6	0	0	0	0	488	
7	0	0	0	0	500	
8	0	0	0	0	487	
9	0	0	0	0	499	
10	0	0	0	0	489	
11	0	0	0	0	502	
12	0	0	0	0	499	
13	0	0	0	0	508	
14	0	0	0	0	491	
15	0	0	0	0	498	
0	0	0	0	0	488	
1	0	0	0	0	500	
2	0	0	0	0	490	
3	0	0	0	0	501	
4	0	0	0	0	490	
5	0	0	0	0	502	
6	0	0	0	0	492	
7	0	0	0	0	510	
8	0	0	0	0	489	
9	0	0	0	0	498	
10	0	0	0	0	485	
11	0	0	0	0	492	
12	0	0	0	0	480	
13	0	0	0	0	491	
14	0	0	0	0	475	
15	0	0	0	0	489	
0	0	0	0	0	469	
1	0	0	0	0	478	
2	0	0	0	0	456	
3	0	0	0	0	461	
4	0	0	0	0	451	
5	0	0	0	0	453	
6	0	0	0	0	434	
7	0	0	0	0	437	
8	0	0	0	0	423	
9	0	0	0	0	433	
10	0	0	0	0	426	
11	0	0	0	0	437	
12	0	0	0	0	423	
13	0	0	0	0	436	
14	0	0	0	0	423	
15	0	0	0	0	436	
0	0	0	0	0	422	
1	0	0	0	0	433	
2	0	0	0	0	422	
3	0	0	0	0	436	
4	0	0	0	0	423	
5	0	0	0	0	435	
6	0	0	0	0	423	
7	0	0	0	0	435	
8	0	0	0	1	431	
9	0	0	0	1	415	
10	0	0	0	1	441	
11	0	0	0	1	445	
12	0	0	0	0	438	
13	0	0	0	0	442	
14	0	0	0	0	425	
15	0	0	0	0	436	
0	0	0	0	0	422	
1	0	0	0	0	436	
2	0	0	0	0	424	
3	0	0	0	0	433	
4	0	0	0	0	425	
5	0	0	0	0	429	
6	0	0	0	0	407	
7	0	0	0	0	435	
8	0	0	0	0	435	
9	0	0	0	0	458	
10	0	0	0	0	451	
11	0	0	0	0	482	
12	0	0	0	0	481	
13	0	0	0	0	492	
14	0	0	0	1	487	
15	0	0	0	1	486	
0	0	0	0	1	493	
1	0	0	0	0	495	
2	0	0	0	0	484	
3	0	0	0	0	505	
4	0	0	0	0	494	
5	0	0	0	0	511	
6	0	0	0	0	502	
7	0	0	0	0	502	
8	0	0	0	0	501	
9	0	0	0	0	488	
10	0	0	0	0	502	
11	0	0	0	0	502	
12	0	0	0	0	489	
13	0	0	0	0	501	
14	0	0	0	0	495	
15	0	0	0	0	504	
0	0	0	0	0	485	
1	0	0	0	0	494	
2	0	0	0	0	476	
3	0	0	0	0	492	
4	0	0	0	0	485	
5	0	0	0	0	506	
6	0	0	0	0	491	
7	0	0	0	0	502	
8	0	0	0	0	504	
9	0	0	0	0	518	
10	0	0	0	0	507	
11	0	0	0	0	519	
12	0	0	0	0	511	
13	0	0	0	0	518	
14	0	0	0	0	509	
15	0	0	0	0	520	
0	0	0	0	0	506	
1	0	0	0	0	510	
2	0	0	0	0	478	
3	0	0	0	0	500	
4	0	0	0	0	481	
5	0	0	0	0	499	
6	0	0	0	0	489	
7	0	0	0	0	505	
8	0	0	0	0	491	
9	0	0	0	0	498	
10	0	0	0	0	487	
11	0	0	0	0	499	
12	0	0	0	0	484	
13	0	0	0	0	498	
14	0	0	0	0	487	
15	0	0	0	0	500	
0	0	0	0	0	488	
1	0	0	0	0	501	
2	0	0	0	0	487	
3	0	0	0	0	499	
4	0	0	0	0	487	
5	0	0	0	0	499	
6	0	0	0	0	487	
7	0	0	0	0	498	
8	0	0	0	0	485	
9	0	0	0	0	497	
10	0	0	0	0	489	
11	0	0	0	0	499	
12	0	0	0	0	492	
13	0	0	0	0	499	
14	0	0	0	0	494	
15	0	0	0	0	502	
0	0	0	0	0	486	
1	0	0	0	0	499	
2	0	0	0	0	490	
3	0	0	0	0	500	
4	0	0	0	0	488	
5	0	0	0	0	501	
6	0	0	0	0	490	
7	0	0	0	0	500	
8	0	0	0	0	489	
9	0	0	0	0	500	
10	0	0	0	0	488	
11	0	0	0	0	499	
12	0	0	0	0	489	
13	0	0	0	0	500	
14	0	0	0	0	490	
15	0	0	0	0	500	
0	0	0	0	0	487	
1	0	0	0	0	499	
2	0	0	0	0	488	
3	0	0	0	0	501	
4	0	0	0	0	489	
5	0	0	0	0	501	
6	0	0	0	0	488	
7	0	0	0	0	499	
8	0	0	0	0	489	
9	0	0	0	0	500	
10	0	0	0	0	489	
11	0	0	0	0	502	
12	0	0	0	0	490	
13	0	0	0	0	501	
14	0	0	0	0	488	
15	0	0	0	0	500	
0	0	0	0	0	489	
1	0	0	0	0	502	
2	0	0	0	0	490	
3	0	0	0	0	502	
4	0	0	0	0	490	
5	0	0	0	0	501	
6	0	0	0	0	490	
7	0	0	0	0	500	
8	0	0	0	0	489	
9	0	0	0	0	507	
10	0	0	0	0	494	
11	0	0	0	0	491	
12	0	0	0	0	478	
13	0	0	0	0	492	
14	0	0	0	0	478	
15	0	0	0	0	480	
0	0	0	0	0	457	
1	0	0	0	0	457	
2	0	0	0	0	432	
3	0	0	0	0	433	
4	0	0	0	0	420	
5	0	0	0	0	428	
6	0	0	0	0	419	
7	0	0	0	0	433	
8	0	0	0	0	425	
9	0	0	0	0	435	
10	0	0	0	0	423	
11	0	0	0	0	437	
12	0	0	0	0	423	
13	0	0	0	0	434	
14	0	0	0	0	423	
15	0	0	0	0	435	
